#K-Path(1/A)         Spin-Up(eV)   Spin-down(eV)
# NKPTS & NBANDS: 270 152
# Band-Index    1
   0.00000    -20.596780    -20.596780
   0.01577    -20.596775    -20.596775
   0.03154    -20.596757    -20.596757
   0.04731    -20.596729    -20.596729
   0.06308    -20.596690    -20.596690
   0.07886    -20.596640    -20.596640
   0.09463    -20.596581    -20.596581
   0.11040    -20.596511    -20.596511
   0.12617    -20.596433    -20.596433
   0.14194    -20.596347    -20.596347
   0.15771    -20.596253    -20.596253
   0.17348    -20.596153    -20.596153
   0.18925    -20.596047    -20.596047
   0.20503    -20.595936    -20.595936
   0.22080    -20.595821    -20.595821
   0.23657    -20.595704    -20.595704
   0.25234    -20.595585    -20.595585
   0.26811    -20.595465    -20.595465
   0.28388    -20.595345    -20.595345
   0.29965    -20.595227    -20.595227
   0.31542    -20.595111    -20.595111
   0.33119    -20.594997    -20.594997
   0.34697    -20.594888    -20.594888
   0.36274    -20.594782    -20.594782
   0.37851    -20.594682    -20.594682
   0.39428    -20.594587    -20.594587
   0.41005    -20.594499    -20.594499
   0.42582    -20.594418    -20.594418
   0.44159    -20.594344    -20.594344
   0.45736    -20.594279    -20.594279
   0.47313    -20.594221    -20.594221
   0.48891    -20.594172    -20.594172
   0.50468    -20.594131    -20.594131
   0.52045    -20.594099    -20.594099
   0.53622    -20.594076    -20.594076
   0.55199    -20.594063    -20.594063
   0.56776    -20.594058    -20.594058
   0.56776    -20.594058    -20.594058
   0.58543    -20.594057    -20.594057
   0.60310    -20.594051    -20.594051
   0.62077    -20.594044    -20.594044
   0.63844    -20.594034    -20.594034
   0.63844    -20.594034    -20.594034
   0.65390    -20.594024    -20.594024
   0.66936    -20.594014    -20.594014
   0.68483    -20.594006    -20.594006
   0.70029    -20.594000    -20.594000
   0.71575    -20.593997    -20.593997
   0.73122    -20.594000    -20.594000
   0.74668    -20.594008    -20.594008
   0.76214    -20.594024    -20.594024
   0.77761    -20.594048    -20.594048
   0.79307    -20.594081    -20.594081
   0.80853    -20.594124    -20.594124
   0.82400    -20.594179    -20.594179
   0.83946    -20.594244    -20.594244
   0.85492    -20.594321    -20.594321
   0.87039    -20.594410    -20.594410
   0.88585    -20.594509    -20.594509
   0.90131    -20.594619    -20.594619
   0.91678    -20.594738    -20.594738
   0.93224    -20.594866    -20.594866
   0.94771    -20.595002    -20.595002
   0.96317    -20.595143    -20.595143
   0.97863    -20.595288    -20.595288
   0.99410    -20.595437    -20.595437
   1.00956    -20.595585    -20.595585
   1.02502    -20.595733    -20.595733
   1.04049    -20.595877    -20.595877
   1.05595    -20.596016    -20.596016
   1.07141    -20.596148    -20.596148
   1.08688    -20.596271    -20.596271
   1.10234    -20.596384    -20.596384
   1.11780    -20.596485    -20.596485
   1.13327    -20.596572    -20.596572
   1.14873    -20.596646    -20.596646
   1.16419    -20.596704    -20.596704
   1.17966    -20.596746    -20.596746
   1.19512    -20.596771    -20.596771
   1.21058    -20.596780    -20.596780
   1.21058    -20.596780    -20.596780
   1.22698    -20.596780    -20.596780
   1.24337    -20.596780    -20.596780
   1.25976    -20.596779    -20.596779
   1.27616    -20.596777    -20.596777
   1.29255    -20.596776    -20.596776
   1.30894    -20.596774    -20.596774
   1.32534    -20.596771    -20.596771
   1.34173    -20.596769    -20.596769
   1.35812    -20.596767    -20.596767
   1.37452    -20.596765    -20.596765
   1.39091    -20.596763    -20.596763
   1.40730    -20.596761    -20.596761
   1.42370    -20.596759    -20.596759
   1.44009    -20.596758    -20.596758
   1.45648    -20.596757    -20.596757
   1.47288    -20.596756    -20.596756
   1.48927    -20.596756    -20.596756
   1.48927    -20.596756    -20.596756
   1.50473    -20.596748    -20.596748
   1.52020    -20.596723    -20.596723
   1.53566    -20.596680    -20.596680
   1.55112    -20.596622    -20.596622
   1.56659    -20.596549    -20.596549
   1.58205    -20.596461    -20.596461
   1.59752    -20.596360    -20.596360
   1.61298    -20.596248    -20.596248
   1.62844    -20.596125    -20.596125
   1.64391    -20.595994    -20.595994
   1.65937    -20.595856    -20.595856
   1.67483    -20.595712    -20.595712
   1.69030    -20.595565    -20.595565
   1.70576    -20.595417    -20.595417
   1.72122    -20.595269    -20.595269
   1.73669    -20.595124    -20.595124
   1.75215    -20.594983    -20.594983
   1.76761    -20.594848    -20.594848
   1.78308    -20.594720    -20.594720
   1.79854    -20.594601    -20.594601
   1.81400    -20.594491    -20.594491
   1.82947    -20.594392    -20.594392
   1.84493    -20.594304    -20.594304
   1.86039    -20.594227    -20.594227
   1.87586    -20.594162    -20.594162
   1.89132    -20.594108    -20.594108
   1.90678    -20.594065    -20.594065
   1.92225    -20.594033    -20.594033
   1.93771    -20.594009    -20.594009
   1.95318    -20.593994    -20.593994
   1.96864    -20.593986    -20.593986
   1.98410    -20.593984    -20.593984
   1.99957    -20.593987    -20.593987
   2.01503    -20.593993    -20.593993
   2.03049    -20.594001    -20.594001
   2.04596    -20.594010    -20.594010
   2.06142    -20.594019    -20.594019
   2.06142    -20.594019    -20.594019
   2.07909    -20.594029    -20.594029
   2.09676    -20.594037    -20.594037
   2.11442    -20.594043    -20.594043
   2.13209    -20.594044    -20.594044
   2.13209    -20.594044    -20.594044
   2.14849    -20.594044    -20.594044
   2.16488    -20.594045    -20.594045
   2.18127    -20.594045    -20.594045
   2.19767    -20.594046    -20.594046
   2.21406    -20.594047    -20.594047
   2.23045    -20.594048    -20.594048
   2.24685    -20.594049    -20.594049
   2.26324    -20.594051    -20.594051
   2.27963    -20.594052    -20.594052
   2.29603    -20.594053    -20.594053
   2.31242    -20.594054    -20.594054
   2.32881    -20.594055    -20.594055
   2.34521    -20.594056    -20.594056
   2.36160    -20.594057    -20.594057
   2.37799    -20.594057    -20.594057
   2.39439    -20.594058    -20.594058
   2.41078    -20.594058    -20.594058
   2.41078    -20.596780    -20.596780
   2.42666    -20.596772    -20.596772
   2.44254    -20.596750    -20.596750
   2.45843    -20.596713    -20.596713
   2.47431    -20.596662    -20.596662
   2.49019    -20.596596    -20.596596
   2.50607    -20.596518    -20.596518
   2.52196    -20.596429    -20.596429
   2.53784    -20.596328    -20.596328
   2.55372    -20.596217    -20.596217
   2.56960    -20.596099    -20.596099
   2.58549    -20.595974    -20.595974
   2.60137    -20.595843    -20.595843
   2.61725    -20.595710    -20.595710
   2.63313    -20.595574    -20.595574
   2.64902    -20.595439    -20.595439
   2.66490    -20.595305    -20.595305
   2.68078    -20.595176    -20.595176
   2.69666    -20.595052    -20.595052
   2.71255    -20.594936    -20.594936
   2.72843    -20.594828    -20.594828
   2.74431    -20.594731    -20.594731
   2.76019    -20.594647    -20.594647
   2.77608    -20.594576    -20.594576
   2.79196    -20.594519    -20.594519
   2.80784    -20.594478    -20.594478
   2.82372    -20.594454    -20.594454
   2.83961    -20.594445    -20.594445
   2.83961    -20.594445    -20.594445
   2.85600    -20.594445    -20.594445
   2.87239    -20.594445    -20.594445
   2.88879    -20.594444    -20.594444
   2.90518    -20.594444    -20.594444
   2.92157    -20.594442    -20.594442
   2.93797    -20.594441    -20.594441
   2.95436    -20.594440    -20.594440
   2.97075    -20.594438    -20.594438
   2.98715    -20.594437    -20.594437
   3.00354    -20.594436    -20.594436
   3.01993    -20.594434    -20.594434
   3.03633    -20.594433    -20.594433
   3.05272    -20.594432    -20.594432
   3.06911    -20.594431    -20.594431
   3.08551    -20.594431    -20.594431
   3.10190    -20.594430    -20.594430
   3.11829    -20.594430    -20.594430
   3.11829    -20.594430    -20.594430
   3.13418    -20.594438    -20.594438
   3.15006    -20.594463    -20.594463
   3.16594    -20.594504    -20.594504
   3.18182    -20.594560    -20.594560
   3.19770    -20.594630    -20.594630
   3.21359    -20.594714    -20.594714
   3.22947    -20.594811    -20.594811
   3.24535    -20.594918    -20.594918
   3.26123    -20.595034    -20.595034
   3.27712    -20.595157    -20.595157
   3.29300    -20.595286    -20.595286
   3.30888    -20.595419    -20.595419
   3.32476    -20.595554    -20.595554
   3.34065    -20.595689    -20.595689
   3.35653    -20.595823    -20.595823
   3.37241    -20.595952    -20.595952
   3.38829    -20.596077    -20.596077
   3.40418    -20.596195    -20.596195
   3.42006    -20.596305    -20.596305
   3.43594    -20.596406    -20.596406
   3.45182    -20.596495    -20.596495
   3.46771    -20.596573    -20.596573
   3.48359    -20.596638    -20.596638
   3.49947    -20.596689    -20.596689
   3.51535    -20.596726    -20.596726
   3.53124    -20.596749    -20.596749
   3.54712    -20.596756    -20.596756
   3.54712    -20.596756    -20.596756
   3.56289    -20.596751    -20.596751
   3.57866    -20.596734    -20.596734
   3.59443    -20.596706    -20.596706
   3.61020    -20.596667    -20.596667
   3.62597    -20.596617    -20.596617
   3.64175    -20.596557    -20.596557
   3.65752    -20.596488    -20.596488
   3.67329    -20.596410    -20.596410
   3.68906    -20.596324    -20.596324
   3.70483    -20.596230    -20.596230
   3.72060    -20.596130    -20.596130
   3.73637    -20.596025    -20.596025
   3.75214    -20.595914    -20.595914
   3.76791    -20.595800    -20.595800
   3.78369    -20.595684    -20.595684
   3.79946    -20.595565    -20.595565
   3.81523    -20.595446    -20.595446
   3.83100    -20.595327    -20.595327
   3.84677    -20.595209    -20.595209
   3.86254    -20.595093    -20.595093
   3.87831    -20.594980    -20.594980
   3.89408    -20.594870    -20.594870
   3.90986    -20.594765    -20.594765
   3.92563    -20.594665    -20.594665
   3.94140    -20.594572    -20.594572
   3.95717    -20.594484    -20.594484
   3.97294    -20.594403    -20.594403
   3.98871    -20.594330    -20.594330
   4.00448    -20.594264    -20.594264
   4.02025    -20.594206    -20.594206
   4.03602    -20.594157    -20.594157
   4.05180    -20.594117    -20.594117
   4.06757    -20.594085    -20.594085
   4.08334    -20.594063    -20.594063
   4.09911    -20.594049    -20.594049
   4.11488    -20.594044    -20.594044
 
# Band-Index    2
   4.11488    -20.562949    -20.562949
   4.09911    -20.562948    -20.562948
   4.08334    -20.562943    -20.562943
   4.06757    -20.562935    -20.562935
   4.05180    -20.562924    -20.562924
   4.03602    -20.562909    -20.562909
   4.02025    -20.562892    -20.562892
   4.00448    -20.562872    -20.562872
   3.98871    -20.562849    -20.562849
   3.97294    -20.562822    -20.562822
   3.95717    -20.562792    -20.562792
   3.94140    -20.562759    -20.562759
   3.92563    -20.562723    -20.562723
   3.90986    -20.562684    -20.562684
   3.89408    -20.562643    -20.562643
   3.87831    -20.562599    -20.562599
   3.86254    -20.562553    -20.562553
   3.84677    -20.562505    -20.562505
   3.83100    -20.562455    -20.562455
   3.81523    -20.562405    -20.562405
   3.79946    -20.562354    -20.562354
   3.78369    -20.562302    -20.562302
   3.76791    -20.562250    -20.562250
   3.75214    -20.562199    -20.562199
   3.73637    -20.562150    -20.562150
   3.72060    -20.562102    -20.562102
   3.70483    -20.562057    -20.562057
   3.68906    -20.562014    -20.562014
   3.67329    -20.561974    -20.561974
   3.65752    -20.561937    -20.561937
   3.64175    -20.561905    -20.561905
   3.62597    -20.561877    -20.561877
   3.61020    -20.561853    -20.561853
   3.59443    -20.561835    -20.561835
   3.57866    -20.561821    -20.561821
   3.56289    -20.561812    -20.561812
   3.54712    -20.561810    -20.561810
   3.54712    -20.561810    -20.561810
   3.53124    -20.561815    -20.561815
   3.51535    -20.561829    -20.561829
   3.49947    -20.561854    -20.561854
   3.48359    -20.561887    -20.561887
   3.46771    -20.561930    -20.561930
   3.45182    -20.561981    -20.561981
   3.43594    -20.562039    -20.562039
   3.42006    -20.562105    -20.562105
   3.40418    -20.562178    -20.562178
   3.38829    -20.562256    -20.562256
   3.37241    -20.562338    -20.562338
   3.35653    -20.562425    -20.562425
   3.34065    -20.562514    -20.562514
   3.32476    -20.562604    -20.562604
   3.30888    -20.562694    -20.562694
   3.29300    -20.562783    -20.562783
   3.27712    -20.562870    -20.562870
   3.26123    -20.562954    -20.562954
   3.24535    -20.563032    -20.563032
   3.22947    -20.563105    -20.563105
   3.21359    -20.563170    -20.563170
   3.19770    -20.563228    -20.563228
   3.18182    -20.563276    -20.563276
   3.16594    -20.563314    -20.563314
   3.15006    -20.563342    -20.563342
   3.13418    -20.563359    -20.563359
   3.11829    -20.563365    -20.563365
   3.11829    -20.563365    -20.563365
   3.10190    -20.563365    -20.563365
   3.08551    -20.563366    -20.563366
   3.06911    -20.563367    -20.563367
   3.05272    -20.563369    -20.563369
   3.03633    -20.563371    -20.563371
   3.01993    -20.563373    -20.563373
   3.00354    -20.563376    -20.563376
   2.98715    -20.563379    -20.563379
   2.97075    -20.563381    -20.563381
   2.95436    -20.563384    -20.563384
   2.93797    -20.563387    -20.563387
   2.92157    -20.563389    -20.563389
   2.90518    -20.563391    -20.563391
   2.88879    -20.563393    -20.563393
   2.87239    -20.563394    -20.563394
   2.85600    -20.563395    -20.563395
   2.83961    -20.563395    -20.563395
   2.83961    -20.563395    -20.563395
   2.82372    -20.563390    -20.563390
   2.80784    -20.563373    -20.563373
   2.79196    -20.563345    -20.563345
   2.77608    -20.563306    -20.563306
   2.76019    -20.563258    -20.563258
   2.74431    -20.563201    -20.563201
   2.72843    -20.563135    -20.563135
   2.71255    -20.563063    -20.563063
   2.69666    -20.562984    -20.562984
   2.68078    -20.562901    -20.562901
   2.66490    -20.562814    -20.562814
   2.64902    -20.562724    -20.562724
   2.63313    -20.562633    -20.562633
   2.61725    -20.562543    -20.562543
   2.60137    -20.562454    -20.562454
   2.58549    -20.562367    -20.562367
   2.56960    -20.562284    -20.562284
   2.55372    -20.562206    -20.562206
   2.53784    -20.562134    -20.562134
   2.52196    -20.562068    -20.562068
   2.50607    -20.562009    -20.562009
   2.49019    -20.561958    -20.561958
   2.47431    -20.561916    -20.561916
   2.45843    -20.561883    -20.561883
   2.44254    -20.561859    -20.561859
   2.42666    -20.561844    -20.561844
   2.41078    -20.561839    -20.561839
   2.41078    -20.562978    -20.562978
   2.39439    -20.562978    -20.562978
   2.37799    -20.562977    -20.562977
   2.36160    -20.562976    -20.562976
   2.34521    -20.562974    -20.562974
   2.32881    -20.562972    -20.562972
   2.31242    -20.562970    -20.562970
   2.29603    -20.562967    -20.562967
   2.27963    -20.562965    -20.562965
   2.26324    -20.562962    -20.562962
   2.24685    -20.562960    -20.562960
   2.23045    -20.562957    -20.562957
   2.21406    -20.562955    -20.562955
   2.19767    -20.562953    -20.562953
   2.18127    -20.562951    -20.562951
   2.16488    -20.562950    -20.562950
   2.14849    -20.562949    -20.562949
   2.13209    -20.562949    -20.562949
   2.13209    -20.562949    -20.562949
   2.11442    -20.562954    -20.562954
   2.09676    -20.562968    -20.562968
   2.07909    -20.562991    -20.562991
   2.06142    -20.563022    -20.563022
   2.06142    -20.563022    -20.563022
   2.04596    -20.563055    -20.563055
   2.03049    -20.563093    -20.563093
   2.01503    -20.563132    -20.563132
   1.99957    -20.563174    -20.563174
   1.98410    -20.563215    -20.563215
   1.96864    -20.563254    -20.563254
   1.95318    -20.563291    -20.563291
   1.93771    -20.563324    -20.563324
   1.92225    -20.563351    -20.563351
   1.90678    -20.563370    -20.563370
   1.89132    -20.563382    -20.563382
   1.87586    -20.563384    -20.563384
   1.86039    -20.563378    -20.563378
   1.84493    -20.563360    -20.563360
   1.82947    -20.563331    -20.563331
   1.81400    -20.563292    -20.563292
   1.79854    -20.563242    -20.563242
   1.78308    -20.563181    -20.563181
   1.76761    -20.563112    -20.563112
   1.75215    -20.563034    -20.563034
   1.73669    -20.562948    -20.562948
   1.72122    -20.562857    -20.562857
   1.70576    -20.562761    -20.562761
   1.69030    -20.562663    -20.562663
   1.67483    -20.562563    -20.562563
   1.65937    -20.562464    -20.562464
   1.64391    -20.562367    -20.562367
   1.62844    -20.562273    -20.562273
   1.61298    -20.562185    -20.562185
   1.59752    -20.562103    -20.562103
   1.58205    -20.562029    -20.562029
   1.56659    -20.561964    -20.561964
   1.55112    -20.561910    -20.561910
   1.53566    -20.561867    -20.561867
   1.52020    -20.561835    -20.561835
   1.50473    -20.561816    -20.561816
   1.48927    -20.561810    -20.561810
   1.48927    -20.561810    -20.561810
   1.47288    -20.561810    -20.561810
   1.45648    -20.561811    -20.561811
   1.44009    -20.561812    -20.561812
   1.42370    -20.561814    -20.561814
   1.40730    -20.561816    -20.561816
   1.39091    -20.561818    -20.561818
   1.37452    -20.561820    -20.561820
   1.35812    -20.561823    -20.561823
   1.34173    -20.561826    -20.561826
   1.32534    -20.561828    -20.561828
   1.30894    -20.561831    -20.561831
   1.29255    -20.561833    -20.561833
   1.27616    -20.561835    -20.561835
   1.25976    -20.561837    -20.561837
   1.24337    -20.561839    -20.561839
   1.22698    -20.561839    -20.561839
   1.21058    -20.561839    -20.561839
   1.21058    -20.561839    -20.561839
   1.19512    -20.561845    -20.561845
   1.17966    -20.561864    -20.561864
   1.16419    -20.561895    -20.561895
   1.14873    -20.561938    -20.561938
   1.13327    -20.561993    -20.561993
   1.11780    -20.562058    -20.562058
   1.10234    -20.562132    -20.562132
   1.08688    -20.562213    -20.562213
   1.07141    -20.562302    -20.562302
   1.05595    -20.562395    -20.562395
   1.04049    -20.562493    -20.562493
   1.02502    -20.562593    -20.562593
   1.00956    -20.562692    -20.562692
   0.99410    -20.562791    -20.562791
   0.97863    -20.562887    -20.562887
   0.96317    -20.562978    -20.562978
   0.94771    -20.563064    -20.563064
   0.93224    -20.563143    -20.563143
   0.91678    -20.563213    -20.563213
   0.90131    -20.563274    -20.563274
   0.88585    -20.563324    -20.563324
   0.87039    -20.563364    -20.563364
   0.85492    -20.563392    -20.563392
   0.83946    -20.563410    -20.563410
   0.82400    -20.563417    -20.563417
   0.80853    -20.563414    -20.563414
   0.79307    -20.563402    -20.563402
   0.77761    -20.563382    -20.563382
   0.76214    -20.563355    -20.563355
   0.74668    -20.563321    -20.563321
   0.73122    -20.563284    -20.563284
   0.71575    -20.563244    -20.563244
   0.70029    -20.563202    -20.563202
   0.68483    -20.563161    -20.563161
   0.66936    -20.563121    -20.563121
   0.65390    -20.563084    -20.563084
   0.63844    -20.563052    -20.563052
   0.63844    -20.563052    -20.563052
   0.62077    -20.563021    -20.563021
   0.60310    -20.562997    -20.562997
   0.58543    -20.562983    -20.562983
   0.56776    -20.562978    -20.562978
   0.56776    -20.562978    -20.562978
   0.55199    -20.562977    -20.562977
   0.53622    -20.562972    -20.562972
   0.52045    -20.562964    -20.562964
   0.50468    -20.562953    -20.562953
   0.48891    -20.562939    -20.562939
