#K-Path(1/A)         Spin-Up(eV)   Spin-down(eV)
# NKPTS & NBANDS: 176 128
# Band-Index    1
   0.00000    -21.007126    -21.007126
   0.01572    -21.007112    -21.007112
   0.03145    -21.007069    -21.007069
   0.04717    -21.006998    -21.006997
   0.06290    -21.006898    -21.006898
   0.07862    -21.006772    -21.006772
   0.09435    -21.006619    -21.006619
   0.11007    -21.006440    -21.006440
   0.12580    -21.006238    -21.006238
   0.14152    -21.006012    -21.006012
   0.15724    -21.005765    -21.005765
   0.17297    -21.005499    -21.005499
   0.18869    -21.005216    -21.005216
   0.20442    -21.004916    -21.004916
   0.22014    -21.004603    -21.004603
   0.23587    -21.004278    -21.004278
   0.25159    -21.003944    -21.003944
   0.26732    -21.003602    -21.003602
   0.28304    -21.003255    -21.003255
   0.29876    -21.002906    -21.002906
   0.31449    -21.002557    -21.002557
   0.33021    -21.002211    -21.002211
   0.34594    -21.001869    -21.001869
   0.36166    -21.001534    -21.001534
   0.37739    -21.001208    -21.001208
   0.39311    -21.000894    -21.000894
   0.40884    -21.000593    -21.000593
   0.42456    -21.000308    -21.000308
   0.44028    -21.000041    -21.000041
   0.45601    -20.999793    -20.999793
   0.47173    -20.999567    -20.999567
   0.48746    -20.999364    -20.999364
   0.50318    -20.999184    -20.999184
   0.51891    -20.999030    -20.999030
   0.53463    -20.998903    -20.998903
   0.55036    -20.998802    -20.998802
   0.56608    -20.998730    -20.998730
   0.58181    -20.998687    -20.998687
   0.59753    -20.998672    -20.998672
   0.59753    -20.998672    -20.998672
   0.61378    -20.998661    -20.998661
   0.63003    -20.998626    -20.998626
   0.64628    -20.998569    -20.998569
   0.66253    -20.998490    -20.998490
   0.67878    -20.998389    -20.998389
   0.69503    -20.998266    -20.998266
   0.71128    -20.998122    -20.998122
   0.72753    -20.997957    -20.997957
   0.74379    -20.997774    -20.997774
   0.76004    -20.997572    -20.997572
   0.77629    -20.997352    -20.997352
   0.79254    -20.997116    -20.997116
   0.80879    -20.996865    -20.996865
   0.80879    -20.996865    -20.996865
   0.82425    -20.996612    -20.996612
   0.83970    -20.996349    -20.996349
   0.85516    -20.996074    -20.996074
   0.87062    -20.995790    -20.995790
   0.88608    -20.995814    -20.995814
   0.90154    -20.996168    -20.996168
   0.91699    -20.996534    -20.996534
   0.93245    -20.996912    -20.996912
   0.94791    -20.997301    -20.997300
   0.96337    -20.997698    -20.997698
   0.97883    -20.998105    -20.998105
   0.99428    -20.998518    -20.998518
   1.00974    -20.998938    -20.998937
   1.02520    -20.999361    -20.999361
   1.04066    -20.999788    -20.999788
   1.05612    -21.000217    -21.000217
   1.07157    -21.000645    -21.000645
   1.08703    -21.001072    -21.001072
   1.10249    -21.001496    -21.001496
   1.11795    -21.001915    -21.001915
   1.13340    -21.002328    -21.002328
   1.14886    -21.002734    -21.002734
   1.16432    -21.003130    -21.003130
   1.17978    -21.003516    -21.003516
   1.19524    -21.003889    -21.003889
   1.21069    -21.004248    -21.004248
   1.22615    -21.004591    -21.004591
   1.24161    -21.004919    -21.004919
   1.25707    -21.005228    -21.005228
   1.27253    -21.005517    -21.005517
   1.28798    -21.005786    -21.005786
   1.30344    -21.006033    -21.006033
   1.31890    -21.006257    -21.006257
   1.33436    -21.006457    -21.006457
   1.34982    -21.006633    -21.006633
   1.36527    -21.006782    -21.006782
   1.38073    -21.006905    -21.006905
   1.39619    -21.007002    -21.007002
   1.41165    -21.007071    -21.007071
   1.42711    -21.007112    -21.007112
   1.44256    -21.007126    -21.007126
   1.44256    -21.007126    -21.007126
   1.45824    -21.007112    -21.007112
   1.47393    -21.007069    -21.007069
   1.48961    -21.006998    -21.006998
   1.50529    -21.006899    -21.006899
   1.52097    -21.006772    -21.006772
   1.53665    -21.006618    -21.006618
   1.55233    -21.006437    -21.006437
   1.56801    -21.006230    -21.006229
   1.58369    -21.005997    -21.005997
   1.59937    -21.005741    -21.005741
   1.61506    -21.005461    -21.005461
   1.63074    -21.005159    -21.005159
   1.64642    -21.004836    -21.004836
   1.66210    -21.004493    -21.004493
   1.67778    -21.004132    -21.004132
   1.69346    -21.003753    -21.003753
   1.70914    -21.003358    -21.003358
   1.72482    -21.002949    -21.002949
   1.74050    -21.002526    -21.002526
   1.75619    -21.002092    -21.002092
   1.77187    -21.001647    -21.001647
   1.78755    -21.001193    -21.001193
   1.80323    -21.000732    -21.000732
   1.81891    -21.000265    -21.000265
   1.83459    -20.999793    -20.999793
   1.85027    -20.999317    -20.999317
   1.86595    -20.998840    -20.998840
   1.88163    -20.998362    -20.998362
   1.89732    -20.997885    -20.997885
   1.91300    -20.997410    -20.997410
   1.92868    -20.996939    -20.996939
   1.94436    -20.996471    -20.996471
   1.96004    -20.996029    -20.996029
   1.96004    -20.996029    -20.996029
   1.97569    -20.996027    -20.996027
   1.99134    -20.996022    -20.996022
   2.00699    -20.996014    -20.996014
   2.02263    -20.996002    -20.996002
   2.03828    -20.995987    -20.995987
   2.05393    -20.995969    -20.995969
   2.06958    -20.995949    -20.995949
   2.08523    -20.995927    -20.995927
   2.10088    -20.995903    -20.995903
   2.11653    -20.995877    -20.995877
   2.13218    -20.995849    -20.995849
   2.14783    -20.995821    -20.995821
   2.16347    -20.995791    -20.995791
   2.17912    -20.995762    -20.995762
   2.19477    -20.995733    -20.995733
   2.21042    -20.995704    -20.995704
   2.22607    -20.995676    -20.995676
   2.24172    -20.995650    -20.995650
   2.25737    -20.995625    -20.995625
   2.27302    -20.995603    -20.995603
   2.28866    -20.995583    -20.995583
   2.30431    -20.995566    -20.995566
   2.31996    -20.995551    -20.995551
   2.33561    -20.995539    -20.995539
   2.35126    -20.995531    -20.995531
   2.36691    -20.995526    -20.995526
   2.38256    -20.995524    -20.995524
   2.38256    -20.995524    -20.995524
   2.39915    -20.995799    -20.995799
   2.41575    -20.996071    -20.996071
   2.43235    -20.996339    -20.996339
   2.44895    -20.996601    -20.996601
   2.46555    -20.996855    -20.996855
   2.48215    -20.997099    -20.997099
   2.49874    -20.997330    -20.997330
   2.51534    -20.997549    -20.997549
   2.53194    -20.997751    -20.997751
   2.54854    -20.997937    -20.997937
   2.56514    -20.998104    -20.998104
   2.58173    -20.998251    -20.998251
   2.59833    -20.998378    -20.998378
   2.61493    -20.998483    -20.998483
   2.63153    -20.998565    -20.998565
   2.64813    -20.998624    -20.998624
   2.66472    -20.998660    -20.998660
   2.68132    -20.998672    -20.998672
 
# Band-Index    2
   2.68132    -20.992369    -20.992369
   2.66472    -20.992381    -20.992381
   2.64813    -20.992416    -20.992416
   2.63153    -20.992476    -20.992476
   2.61493    -20.992558    -20.992558
   2.59833    -20.992663    -20.992663
   2.58173    -20.992790    -20.992790
   2.56514    -20.992938    -20.992938
   2.54854    -20.993106    -20.993106
   2.53194    -20.993293    -20.993293
   2.51534    -20.993496    -20.993496
   2.49874    -20.993715    -20.993715
   2.48215    -20.993947    -20.993947
   2.46555    -20.994191    -20.994191
   2.44895    -20.994446    -20.994446
   2.43235    -20.994708    -20.994708
   2.41575    -20.994977    -20.994977
   2.39915    -20.995249    -20.995249
   2.38256    -20.995524    -20.995524
   2.38256    -20.995524    -20.995524
   2.36691    -20.995526    -20.995526
   2.35126    -20.995530    -20.995530
   2.33561    -20.995538    -20.995538
   2.31996    -20.995549    -20.995549
   2.30431    -20.995562    -20.995562
   2.28866    -20.995578    -20.995578
   2.27302    -20.995597    -20.995597
   2.25737    -20.995617    -20.995617
   2.24172    -20.995640    -20.995640
   2.22607    -20.995664    -20.995664
   2.21042    -20.995690    -20.995690
   2.19477    -20.995716    -20.995716
   2.17912    -20.995743    -20.995743
   2.16347    -20.995770    -20.995770
   2.14783    -20.995797    -20.995797
   2.13218    -20.995823    -20.995823
   2.11653    -20.995849    -20.995849
   2.10088    -20.995873    -20.995873
   2.08523    -20.995895    -20.995895
   2.06958    -20.995916    -20.995916
   2.05393    -20.995934    -20.995934
   2.03828    -20.995950    -20.995950
   2.02263    -20.995964    -20.995964
   2.00699    -20.995975    -20.995975
   1.99134    -20.995983    -20.995983
   1.97569    -20.995987    -20.995987
   1.96004    -20.995989    -20.995989
   1.96004    -20.995989    -20.995989
   1.94436    -20.995553    -20.995553
   1.92868    -20.995105    -20.995105
   1.91300    -20.994665    -20.994665
   1.89732    -20.994234    -20.994234
   1.88163    -20.993813    -20.993813
   1.86595    -20.993403    -20.993403
   1.85027    -20.993004    -20.993004
   1.83459    -20.992617    -20.992617
   1.81891    -20.992243    -20.992243
   1.80323    -20.991882    -20.991882
   1.78755    -20.991534    -20.991534
   1.77187    -20.991201    -20.991201
   1.75619    -20.990882    -20.990882
   1.74050    -20.990577    -20.990577
   1.72482    -20.990287    -20.990287
   1.70914    -20.990012    -20.990012
   1.69346    -20.989753    -20.989753
   1.67778    -20.989508    -20.989508
   1.66210    -20.989279    -20.989279
   1.64642    -20.989066    -20.989066
   1.63074    -20.988869    -20.988869
   1.61506    -20.988687    -20.988687
   1.59937    -20.988521    -20.988521
   1.58369    -20.988371    -20.988371
   1.56801    -20.988237    -20.988236
   1.55233    -20.988118    -20.988118
   1.53665    -20.988015    -20.988015
   1.52097    -20.987928    -20.987928
   1.50529    -20.987857    -20.987857
   1.48961    -20.987802    -20.987802
   1.47393    -20.987762    -20.987762
   1.45824    -20.987738    -20.987738
   1.44256    -20.987730    -20.987730
   1.44256    -20.987730    -20.987730
   1.42711    -20.987738    -20.987738
   1.41165    -20.987761    -20.987761
   1.39619    -20.987800    -20.987800
   1.38073    -20.987853    -20.987853
   1.36527    -20.987922    -20.987922
   1.34982    -20.988006    -20.988006
   1.33436    -20.988104    -20.988104
   1.31890    -20.988218    -20.988218
   1.30344    -20.988345    -20.988345
   1.28798    -20.988487    -20.988487
   1.27253    -20.988643    -20.988643
   1.25707    -20.988813    -20.988813
   1.24161    -20.988996    -20.988996
   1.22615    -20.989193    -20.989193
   1.21069    -20.989402    -20.989402
   1.19524    -20.989624    -20.989624
   1.17978    -20.989857    -20.989857
   1.16432    -20.990101    -20.990101
   1.14886    -20.990356    -20.990356
   1.13340    -20.990620    -20.990620
   1.11795    -20.990894    -20.990894
   1.10249    -20.991176    -20.991176
   1.08703    -20.991466    -20.991466
   1.07157    -20.991762    -20.991762
   1.05612    -20.992065    -20.992065
   1.04066    -20.992373    -20.992373
   1.02520    -20.992686    -20.992686
   1.00974    -20.993001    -20.993001
   0.99428    -20.993318    -20.993318
   0.97883    -20.993636    -20.993636
   0.96337    -20.993953    -20.993953
   0.94791    -20.994270    -20.994270
   0.93245    -20.994583    -20.994583
   0.91699    -20.994894    -20.994894
   0.90154    -20.995199    -20.995199
   0.88608    -20.995498    -20.995498
   0.87062    -20.995473    -20.995473
   0.85516    -20.995147    -20.995147
   0.83970    -20.994837    -20.994837
   0.82425    -20.994542    -20.994542
   0.80879    -20.994264    -20.994264
   0.80879    -20.994264    -20.994264
   0.79254    -20.993991    -20.993991
   0.77629    -20.993737    -20.993737
   0.76004    -20.993503    -20.993503
   0.74379    -20.993291    -20.993291
   0.72753    -20.993099    -20.993099
   0.71128    -20.992929    -20.992929
   0.69503    -20.992781    -20.992781
   0.67878    -20.992655    -20.992655
   0.66253    -20.992552    -20.992552
   0.64628    -20.992472    -20.992472
   0.63003    -20.992415    -20.992415
   0.61378    -20.992380    -20.992380
   0.59753    -20.992369    -20.992369
   0.59753    -20.992369    -20.992369
   0.58181    -20.992361    -20.992361
   0.56608    -20.992337    -20.992337
   0.55036    -20.992297    -20.992297
   0.53463    -20.992243    -20.992243
   0.51891    -20.992173    -20.992173
   0.50318    -20.992089    -20.992089
   0.48746    -20.991991    -20.991991
   0.47173    -20.991880    -20.991880
   0.45601    -20.991756    -20.991756
   0.44028    -20.991621    -20.991621
   0.42456    -20.991475    -20.991475
   0.40884    -20.991319    -20.991319
   0.39311    -20.991154    -20.991154
   0.37739    -20.990982    -20.990982
   0.36166    -20.990803    -20.990803
   0.34594    -20.990620    -20.990620
   0.33021    -20.990432    -20.990432
   0.31449    -20.990242    -20.990242
   0.29876    -20.990050    -20.990050
   0.28304    -20.989858    -20.989858
   0.26732    -20.989668    -20.989668
   0.25159    -20.989481    -20.989481
   0.23587    -20.989297    -20.989297
   0.22014    -20.989119    -20.989119
   0.20442    -20.988947    -20.988947
   0.18869    -20.988782    -20.988782
   0.17297    -20.988626    -20.988626
   0.15724    -20.988480    -20.988480
   0.14152    -20.988345    -20.988345
   0.12580    -20.988221    -20.988221
   0.11007    -20.988110    -20.988110
   0.09435    -20.988011    -20.988011
   0.07862    -20.987927    -20.987927
   0.06290    -20.987857    -20.987857
   0.04717    -20.987802    -20.987802
   0.03145    -20.987762    -20.987762
   0.01572    -20.987738    -20.987738
   0.00000    -20.987730    -20.987730
 
# Band-Index    3
   0.00000    -15.816575    -15.816575
   0.01572    -15.816636    -15.816636
   0.03145    -15.816848    -15.816849
   0.04717    -15.817220    -15.817221
   0.06290    -15.817771    -15.817772
   0.07862    -15.818522    -15.818523
   0.09435    -15.819501    -15.819501
   0.11007    -15.820728    -15.820728
   0.12580    -15.822224    -15.822225
   0.14152    -15.824004    -15.824005
   0.15724    -15.826068    -15.826069
   0.17297    -15.828417    -15.828418
   0.18869    -15.831037    -15.831038
   0.20442    -15.833920    -15.833921
   0.22014    -15.837040    -15.837041
   0.23587    -15.840377    -15.840377
   0.25159    -15.843900    -15.843900
   0.26732    -15.847575    -15.847576
   0.28304    -15.851377    -15.851378
   0.29876    -15.855272    -15.855273
   0.31449    -15.859229    -15.859229
   0.33021    -15.863211    -15.863212
   0.34594    -15.867182    -15.867182
   0.36166    -15.871110    -15.871111
   0.37739    -15.874960    -15.874961
   0.39311    -15.878705    -15.878706
   0.40884    -15.882313    -15.882314
   0.42456    -15.885753    -15.885754
   0.44028    -15.888991    -15.888992
   0.45601    -15.892012    -15.892013
   0.47173    -15.894788    -15.894789
   0.48746    -15.897289    -15.897290
   0.50318    -15.899499    -15.899500
   0.51891    -15.901400    -15.901401
   0.53463    -15.902980    -15.902981
   0.55036    -15.904227    -15.904228
   0.56608    -15.905118    -15.905119
   0.58181    -15.905654    -15.905655
   0.59753    -15.905832    -15.905833
   0.59753    -15.905832    -15.905833
   0.61378    -15.905696    -15.905697
   0.63003    -15.905290    -15.905290
   0.64628    -15.904612    -15.904613
   0.66253    -15.903675    -15.903675
   0.67878    -15.902482    -15.902482
   0.69503    -15.901046    -15.901047
   0.71128    -15.899375    -15.899376
   0.72753    -15.897488    -15.897489
   0.74379    -15.895395    -15.895395
   0.76004    -15.893114    -15.893114
   0.77629    -15.890661    -15.890662
   0.79254    -15.888057    -15.888058
   0.80879    -15.885321    -15.885322
   0.80879    -15.885321    -15.885322
   0.82425    -15.882617    -15.882617
   0.83970    -15.879827    -15.879828
   0.85516    -15.876974    -15.876975
   0.87062    -15.874073    -15.874074
   0.88608    -15.871140    -15.871141
   0.90154    -15.868186    -15.868187
   0.91699    -15.865239    -15.865240
   0.93245    -15.862309    -15.862309
   0.94791    -15.859406    -15.859406
   0.96337    -15.856550    -15.856551
   0.97883    -15.853751    -15.853752
   0.99428    -15.851017    -15.851018
   1.00974    -15.848359    -15.848360
   1.02520    -15.845784    -15.845785
   1.04066    -15.843301    -15.843302
   1.05612    -15.840915    -15.840916
   1.07157    -15.838629    -15.838630
   1.08703    -15.836452    -15.836452
   1.10249    -15.834387    -15.834387
   1.11795    -15.832433    -15.832434
   1.13340    -15.830596    -15.830596
   1.14886    -15.828880    -15.828881
   1.16432    -15.827283    -15.827284
   1.17978    -15.826474    -15.826475
   1.19524    -15.825717    -15.825718
   1.21069    -15.824931    -15.824932
   1.22615    -15.824128    -15.824129
   1.24161    -15.823313    -15.823314
   1.25707    -15.822500    -15.822500
   1.27253    -15.821700    -15.821700
   1.28798    -15.820923    -15.820924
   1.30344    -15.820182    -15.820183
   1.31890    -15.819483    -15.819484
   1.33436    -15.818842    -15.818842
   1.34982    -15.818265    -15.818266
   1.36527    -15.817762    -15.817763
   1.38073    -15.817341    -15.817341
   1.39619    -15.817004    -15.817005
   1.41165    -15.816760    -15.816760
   1.42711    -15.816615    -15.816616
   1.44256    -15.816575    -15.816575
   1.44256    -15.816575    -15.816575
   1.45824    -15.816598    -15.816599
   1.47393    -15.816694    -15.816694
   1.48961    -15.816856    -15.816856
   1.50529    -15.817080    -15.817080
   1.52097    -15.817363    -15.817363
   1.53665    -15.817703    -15.817703
   1.55233    -15.818096    -15.818096
   1.56801    -15.818539    -15.818540
   1.58369    -15.819032    -15.819032
   1.59937    -15.819562    -15.819563
   1.61506    -15.820127    -15.820128
   1.63074    -15.820726    -15.820726
   1.64642    -15.821347    -15.821348
   1.66210    -15.821984    -15.821985
   1.67778    -15.822636    -15.822637
   1.69346    -15.823295    -15.823296
   1.70914    -15.823955    -15.823956
   1.72482    -15.824610    -15.824611
   1.74050    -15.825254    -15.825255
   1.75619    -15.825882    -15.825882
   1.77187    -15.826488    -15.826488
   1.78755    -15.827065    -15.827066
   1.80323    -15.827610    -15.827611
   1.81891    -15.828115    -15.828116
   1.83459    -15.828583    -15.828583
   1.85027    -15.829004    -15.829005
   1.86595    -15.829380    -15.829380
   1.88163    -15.829702    -15.829702
   1.89732    -15.829967    -15.829968
   1.91300    -15.830176    -15.830177
   1.92868    -15.830328    -15.830329
   1.94436    -15.830417    -15.830418
   1.96004    -15.830446    -15.830446
   1.96004    -15.830446    -15.830446
   1.97569    -15.830664    -15.830665
   1.99134    -15.831313    -15.831313
   2.00699    -15.832375    -15.832376
   2.02263    -15.833830    -15.833831
   2.03828    -15.835645    -15.835645
   2.05393    -15.837785    -15.837785
   2.06958    -15.840203    -15.840204
   2.08523    -15.842859    -15.842860
   2.10088    -15.845702    -15.845703
   2.11653    -15.848686    -15.848686
   2.13218    -15.851760    -15.851760
   2.14783    -15.854882    -15.854883
   2.16347    -15.858005    -15.858005
   2.17912    -15.861082    -15.861083
   2.19477    -15.864085    -15.864085
   2.21042    -15.866974    -15.866975
   2.22607    -15.869717    -15.869718
   2.24172    -15.872282    -15.872283
   2.25737    -15.874645    -15.874646
   2.27302    -15.876783    -15.876784
   2.28866    -15.878677    -15.878677
   2.30431    -15.880307    -15.880308
   2.31996    -15.881660    -15.881660
   2.33561    -15.882723    -15.882724
   2.35126    -15.883490    -15.883491
   2.36691    -15.883952    -15.883953
   2.38256    -15.884108    -15.884109
