#K-Path(1/A)         Spin-Up(eV)   Spin-down(eV)
# NKPTS & NBANDS: 333 128
# Band-Index    1
   0.00000    -20.914968    -20.914862
   0.01524    -20.914938    -20.914832
   0.03049    -20.914847    -20.914741
   0.04573    -20.914694    -20.914588
   0.06098    -20.914482    -20.914376
   0.07622    -20.914211    -20.914105
   0.09147    -20.913882    -20.913776
   0.10671    -20.913497    -20.913391
   0.12196    -20.913058    -20.912951
   0.13720    -20.912567    -20.912460
   0.15245    -20.912026    -20.911919
   0.16769    -20.911438    -20.911330
   0.18294    -20.910805    -20.910697
   0.19818    -20.910131    -20.910022
   0.21343    -20.909418    -20.909309
   0.22867    -20.908670    -20.908561
   0.24392    -20.907891    -20.907782
   0.25916    -20.907083    -20.906974
   0.27441    -20.906251    -20.906141
   0.28965    -20.905398    -20.905288
   0.30490    -20.904528    -20.904418
   0.32014    -20.903646    -20.903535
   0.33539    -20.902754    -20.902643
   0.35063    -20.901857    -20.901745
   0.36588    -20.900958    -20.900846
   0.38112    -20.900061    -20.899948
   0.39637    -20.899170    -20.899057
   0.41161    -20.898289    -20.898175
   0.42686    -20.897420    -20.897307
   0.44210    -20.896568    -20.896454
   0.45735    -20.895736    -20.895622
   0.47259    -20.894926    -20.894812
   0.48784    -20.894142    -20.894027
   0.50308    -20.893385    -20.893270
   0.51833    -20.892659    -20.892543
   0.53357    -20.891965    -20.891849
   0.54882    -20.891306    -20.891190
   0.56406    -20.890683    -20.890567
   0.57931    -20.890098    -20.889981
   0.59455    -20.889552    -20.889435
   0.60980    -20.889047    -20.888930
   0.62504    -20.888582    -20.888465
   0.64029    -20.888159    -20.888042
   0.65553    -20.887777    -20.887660
   0.67078    -20.887436    -20.887319
   0.68602    -20.887137    -20.887019
   0.70127    -20.887198    -20.887081
   0.71651    -20.887495    -20.887378
   0.73176    -20.887767    -20.887650
   0.74700    -20.888014    -20.887897
   0.76225    -20.888236    -20.888119
   0.77749    -20.888431    -20.888315
   0.79274    -20.888601    -20.888484
   0.80798    -20.888744    -20.888627
   0.82323    -20.888861    -20.888744
   0.83847    -20.888952    -20.888835
   0.85372    -20.889017    -20.888900
   0.86896    -20.889057    -20.888940
   0.88421    -20.889072    -20.888956
   0.89945    -20.889064    -20.888948
   0.91470    -20.889033    -20.888917
   0.92994    -20.888980    -20.888864
   0.94519    -20.888906    -20.888790
   0.96043    -20.888814    -20.888698
   0.97568    -20.888705    -20.888589
   0.99092    -20.888580    -20.888464
   1.00617    -20.888443    -20.888327
   1.02141    -20.888301    -20.888185
   1.03666    -20.888203    -20.888087
   1.03666    -20.888203    -20.888087
   1.05260    -20.888424    -20.888308
   1.06854    -20.888704    -20.888588
   1.08448    -20.888977    -20.888861
   1.10043    -20.889238    -20.889122
   1.11637    -20.889486    -20.889370
   1.13231    -20.889719    -20.889603
   1.14826    -20.889936    -20.889820
   1.16420    -20.890135    -20.890019
   1.18014    -20.890315    -20.890199
   1.19608    -20.890476    -20.890360
   1.21203    -20.890616    -20.890500
   1.22797    -20.890736    -20.890620
   1.24391    -20.890834    -20.890719
   1.25986    -20.890911    -20.890795
   1.27580    -20.890966    -20.890850
   1.29174    -20.890998    -20.890883
   1.30768    -20.891009    -20.890893
   1.32363    -20.890997    -20.890881
   1.33957    -20.890963    -20.890847
   1.35551    -20.890908    -20.890792
   1.37146    -20.890832    -20.890716
   1.38740    -20.890736    -20.890619
   1.40334    -20.890619    -20.890503
   1.41928    -20.890484    -20.890367
   1.43523    -20.890330    -20.890213
   1.45117    -20.890158    -20.890042
   1.46711    -20.889970    -20.889853
   1.48306    -20.889765    -20.889649
   1.49900    -20.889546    -20.889430
   1.49900    -20.889543    -20.889426
   1.51424    -20.889321    -20.889205
   1.52948    -20.889088    -20.888971
   1.54473    -20.888844    -20.888727
   1.55997    -20.888590    -20.888473
   1.57521    -20.888328    -20.888211
   1.59045    -20.888057    -20.887940
   1.60569    -20.887780    -20.887663
   1.62094    -20.887498    -20.887381
   1.63618    -20.887211    -20.887093
   1.65142    -20.887076    -20.886959
   1.66666    -20.887436    -20.887319
   1.68190    -20.887801    -20.887684
   1.69715    -20.888167    -20.888050
   1.71239    -20.888532    -20.888416
   1.72763    -20.888895    -20.888778
   1.74287    -20.889252    -20.889136
   1.75811    -20.889602    -20.889486
   1.77336    -20.889942    -20.889825
   1.78860    -20.890269    -20.890153
   1.80384    -20.890582    -20.890466
   1.81908    -20.890878    -20.890762
   1.83432    -20.891156    -20.891040
   1.84957    -20.891413    -20.891297
   1.86481    -20.891647    -20.891532
   1.88005    -20.891858    -20.891742
   1.89529    -20.892042    -20.891926
   1.91053    -20.892199    -20.892083
   1.92578    -20.892327    -20.892212
   1.94102    -20.892426    -20.892311
   1.95626    -20.892494    -20.892379
   1.97150    -20.892531    -20.892415
   1.98675    -20.892535    -20.892419
   2.00199    -20.892506    -20.892390
   2.01723    -20.892444    -20.892328
   2.03247    -20.892348    -20.892233
   2.04771    -20.892219    -20.892103
   2.06296    -20.892056    -20.891941
   2.07820    -20.891861    -20.891745
   2.09344    -20.891632    -20.891516
   2.10868    -20.891372    -20.891256
   2.12392    -20.891080    -20.890964
   2.13917    -20.890757    -20.890641
   2.15441    -20.890406    -20.890289
   2.16965    -20.890026    -20.889909
   2.18489    -20.889619    -20.889502
   2.20013    -20.889186    -20.889069
   2.21538    -20.888729    -20.888612
   2.23062    -20.888249    -20.888132
   2.24586    -20.887749    -20.887632
   2.26110    -20.887230    -20.887113
   2.27634    -20.887367    -20.887250
   2.29159    -20.888006    -20.887889
   2.30683    -20.888680    -20.888563
   2.32207    -20.889387    -20.889271
   2.33731    -20.890126    -20.890010
   2.35256    -20.890895    -20.890779
   2.36780    -20.891692    -20.891576
   2.38304    -20.892515    -20.892400
   2.39828    -20.893363    -20.893248
   2.41352    -20.894231    -20.894117
   2.42877    -20.895120    -20.895005
   2.44401    -20.896024    -20.895910
   2.45925    -20.896943    -20.896829
   2.47449    -20.897872    -20.897758
   2.48973    -20.898808    -20.898695
   2.50498    -20.899749    -20.899636
   2.52022    -20.900691    -20.900578
   2.53546    -20.901630    -20.901518
   2.55070    -20.902562    -20.902451
   2.56594    -20.903486    -20.903374
   2.58119    -20.904395    -20.904285
   2.59643    -20.905289    -20.905179
   2.61167    -20.906162    -20.906052
   2.62691    -20.907012    -20.906902
   2.64215    -20.907834    -20.907725
   2.65740    -20.908626    -20.908517
   2.67264    -20.909384    -20.909276
   2.68788    -20.910105    -20.909997
   2.70312    -20.910786    -20.910678
   2.71836    -20.911424    -20.911317
   2.73361    -20.912016    -20.911909
   2.74885    -20.912561    -20.912453
   2.76409    -20.913054    -20.912947
   2.77933    -20.913495    -20.913388
   2.79458    -20.913881    -20.913774
   2.80982    -20.914210    -20.914104
   2.82506    -20.914482    -20.914376
   2.84030    -20.914694    -20.914588
   2.85554    -20.914847    -20.914741
   2.87079    -20.914938    -20.914832
   2.88603    -20.914968    -20.914862
   2.88603    -20.914968    -20.914862
   2.90122    -20.914938    -20.914832
   2.91642    -20.914847    -20.914741
   2.93161    -20.914696    -20.914590
   2.94680    -20.914485    -20.914379
   2.96200    -20.914216    -20.914110
   2.97719    -20.913889    -20.913783
   2.99238    -20.913507    -20.913400
   3.00758    -20.913070    -20.912963
   3.02277    -20.912582    -20.912475
   3.03797    -20.912044    -20.911936
   3.05316    -20.911459    -20.911351
   3.06835    -20.910830    -20.910722
   3.08355    -20.910159    -20.910050
   3.09874    -20.909450    -20.909341
   3.11393    -20.908705    -20.908596
   3.12913    -20.907929    -20.907820
   3.14432    -20.907124    -20.907015
   3.15952    -20.906295    -20.906185
   3.17471    -20.905444    -20.905334
   3.18990    -20.904577    -20.904466
   3.20510    -20.903696    -20.903585
   3.22029    -20.902805    -20.902694
   3.23548    -20.901908    -20.901796
   3.25068    -20.901009    -20.900897
   3.26587    -20.900111    -20.899998
   3.28107    -20.899218    -20.899105
   3.29626    -20.898333    -20.898220
   3.31145    -20.897461    -20.897347
   3.32665    -20.896604    -20.896490
   3.34184    -20.895765    -20.895651
   3.35704    -20.894949    -20.894834
   3.37223    -20.894157    -20.894042
   3.38742    -20.893392    -20.893277
   3.40262    -20.892656    -20.892541
   3.41781    -20.891953    -20.891837
   3.43300    -20.891283    -20.891167
   3.44820    -20.890649    -20.890532
   3.46339    -20.890051    -20.889935
   3.47859    -20.889493    -20.889376
   3.49378    -20.888974    -20.888857
   3.50897    -20.888496    -20.888379
   3.52417    -20.888060    -20.887943
   3.53936    -20.887665    -20.887548
   3.55455    -20.887313    -20.887195
   3.56975    -20.887002    -20.886884
   3.58494    -20.886733    -20.886615
   3.60014    -20.886779    -20.886662
   3.61533    -20.886984    -20.886866
   3.63052    -20.887159    -20.887041
   3.64572    -20.887304    -20.887187
   3.66091    -20.887419    -20.887302
   3.67610    -20.887504    -20.887387
   3.69130    -20.887559    -20.887442
   3.70649    -20.887584    -20.887466
   3.72169    -20.887578    -20.887461
   3.73688    -20.887544    -20.887426
   3.75207    -20.887480    -20.887363
   3.76727    -20.887388    -20.887271
   3.78246    -20.887268    -20.887151
   3.79766    -20.887123    -20.887005
   3.81285    -20.887033    -20.886916
   3.82804    -20.887269    -20.887152
   3.84324    -20.887521    -20.887404
   3.85843    -20.887787    -20.887671
   3.87362    -20.888065    -20.887948
   3.88882    -20.888353    -20.888236
   3.90401    -20.888648    -20.888531
   3.91921    -20.888948    -20.888832
   3.93440    -20.889252    -20.889136
   3.94959    -20.889558    -20.889442
   3.96479    -20.889864    -20.889747
   3.97998    -20.890167    -20.890051
   3.99517    -20.890467    -20.890351
   4.01037    -20.890762    -20.890645
   4.02556    -20.891049    -20.890933
   4.04076    -20.891328    -20.891212
   4.05595    -20.891597    -20.891481
   4.07114    -20.891854    -20.891738
   4.08634    -20.892100    -20.891984
   4.10153    -20.892331    -20.892215
   4.11672    -20.892548    -20.892432
   4.13192    -20.892750    -20.892634
   4.14711    -20.892935    -20.892819
   4.16231    -20.893102    -20.892986
   4.17750    -20.893252    -20.893136
   4.19269    -20.893383    -20.893267
   4.20789    -20.893494    -20.893378
   4.22308    -20.893586    -20.893470
   4.23828    -20.893658    -20.893542
   4.25347    -20.893710    -20.893594
   4.26866    -20.893741    -20.893625
   4.28386    -20.893751    -20.893635
   4.28386    -20.893751    -20.893635
   4.30033    -20.893727    -20.893611
   4.31680    -20.893653    -20.893537
   4.33327    -20.893531    -20.893415
   4.34974    -20.893362    -20.893246
   4.36621    -20.893146    -20.893030
   4.38268    -20.892884    -20.892768
   4.39915    -20.892580    -20.892464
   4.41562    -20.892235    -20.892118
   4.43210    -20.891850    -20.891734
   4.44857    -20.891430    -20.891313
   4.46504    -20.890976    -20.890859
   4.48151    -20.890491    -20.890375
   4.49798    -20.889980    -20.889863
   4.51445    -20.889444    -20.889327
   4.53092    -20.888889    -20.888772
   4.54739    -20.888317    -20.888200
   4.56386    -20.887733    -20.887616
   4.58033    -20.887141    -20.887023
   4.59681    -20.886736    -20.886618
   4.59681    -20.886736    -20.886618
   4.61260    -20.886740    -20.886623
   4.62839    -20.886754    -20.886636
   4.64419    -20.886776    -20.886659
   4.65998    -20.886807    -20.886689
   4.67577    -20.886845    -20.886728
   4.69157    -20.886892    -20.886774
   4.70736    -20.886946    -20.886828
   4.72315    -20.887006    -20.886888
   4.73895    -20.887071    -20.886954
   4.75474    -20.887142    -20.887025
   4.77053    -20.887217    -20.887100
   4.78633    -20.887295    -20.887178
   4.80212    -20.887376    -20.887259
   4.81791    -20.887457    -20.887341
   4.83371    -20.887540    -20.887423
   4.84950    -20.887621    -20.887505
   4.86529    -20.887701    -20.887585
   4.88109    -20.887778    -20.887662
   4.89688    -20.887851    -20.887735
   4.91267    -20.887920    -20.887804
   4.92847    -20.887982    -20.887867
   4.94426    -20.888038    -20.887923
   4.96006    -20.888087    -20.887972
   4.97585    -20.888128    -20.888013
   4.99164    -20.888160    -20.888045
   5.00744    -20.888184    -20.888068
   5.02323    -20.888198    -20.888082
   5.03902    -20.888203    -20.888087
 
# Band-Index    2
   5.03902    -20.888033    -20.887916
   5.02323    -20.888029    -20.887912
   5.00744    -20.888016    -20.887899
   4.99164    -20.887993    -20.887876
   4.97585    -20.887963    -20.887845
   4.96006    -20.887923    -20.887806
   4.94426    -20.887877    -20.887759
   4.92847    -20.887822    -20.887705
   4.91267    -20.887762    -20.887644
   4.89688    -20.887695    -20.887578
   4.88109    -20.887623    -20.887506
   4.86529    -20.887547    -20.887429
   4.84950    -20.887467    -20.887350
   4.83371    -20.887385    -20.887268
   4.81791    -20.887302    -20.887184
   4.80212    -20.887218    -20.887101
   4.78633    -20.887135    -20.887018
   4.77053    -20.887054    -20.886937
   4.75474    -20.886976    -20.886859
   4.73895    -20.886902    -20.886784
   4.72315    -20.886832    -20.886715
   4.70736    -20.886768    -20.886651
   4.69157    -20.886711    -20.886594
   4.67577    -20.886661    -20.886544
   4.65998    -20.886620    -20.886502
   4.64419    -20.886587    -20.886469
   4.62839    -20.886563    -20.886445
   4.61260    -20.886548    -20.886431
   4.59681    -20.886543    -20.886425
   4.59681    -20.886543    -20.886425
   4.58033    -20.886135    -20.886018
   4.56386    -20.885540    -20.885422
   4.54739    -20.884952    -20.884834
   4.53092    -20.884376    -20.884258
   4.51445    -20.883816    -20.883698
   4.49798    -20.883276    -20.883158
   4.48151    -20.882760    -20.882641
   4.46504    -20.882270    -20.882152
   4.44857    -20.881811    -20.881693
   4.43210    -20.881386    -20.881267
   4.41562    -20.880997    -20.880878
   4.39915    -20.880647    -20.880528
   4.38268    -20.880338    -20.880219
   4.36621    -20.880074    -20.879955
   4.34974    -20.879855    -20.879735
   4.33327    -20.879682    -20.879563
   4.31680    -20.879558    -20.879439
   4.30033    -20.879484    -20.879364
   4.28386    -20.879459    -20.879340
   4.28386    -20.879459    -20.879340
   4.26866    -20.879473    -20.879353
   4.25347    -20.879514    -20.879395
   4.23828    -20.879584    -20.879465
   4.22308    -20.879680    -20.879561
   4.20789    -20.879803    -20.879684
   4.19269    -20.879951    -20.879832
   4.17750    -20.880124    -20.880005
   4.16231    -20.880320    -20.880201
   4.14711    -20.880537    -20.880418
   4.13192    -20.880775    -20.880657
   4.11672    -20.881032    -20.880914
   4.10153    -20.881307    -20.881188
   4.08634    -20.881596    -20.881477
   4.07114    -20.881899    -20.881780
   4.05595    -20.882213    -20.882094
   4.04076    -20.882535    -20.882417
   4.02556    -20.882866    -20.882747
   4.01037    -20.883200    -20.883082
   3.99517    -20.883538    -20.883419
   3.97998    -20.883875    -20.883757
   3.96479    -20.884209    -20.884091
   3.94959    -20.884540    -20.884422
   3.93440    -20.884863    -20.884745
   3.91921    -20.885177    -20.885059
   3.90401    -20.885480    -20.885362
   3.88882    -20.885770    -20.885652
   3.87362    -20.886044    -20.885927
   3.85843    -20.886301    -20.886184
   3.84324    -20.886539    -20.886422
   3.82804    -20.886756    -20.886639
   3.81285    -20.886951    -20.886833
   3.79766    -20.886814    -20.886696
   3.78246    -20.886615    -20.886498
   3.76727    -20.886439    -20.886322
   3.75207    -20.886288    -20.886170
   3.73688    -20.886162    -20.886045
   3.72169    -20.886065    -20.885948
   3.70649    -20.885998    -20.885880
   3.69130    -20.885963    -20.885845
   3.67610    -20.885961    -20.885843
   3.66091    -20.885994    -20.885876
   3.64572    -20.886064    -20.885946
   3.63052    -20.886172    -20.886054
   3.61533    -20.886318    -20.886201
   3.60014    -20.886505    -20.886387
   3.58494    -20.886546    -20.886429
   3.56975    -20.886286    -20.886168
   3.55455    -20.885999    -20.885881
   3.53936    -20.885686    -20.885568
   3.52417    -20.885348    -20.885231
   3.50897    -20.884987    -20.884869
   3.49378    -20.884604    -20.884486
   3.47859    -20.884201    -20.884083
   3.46339    -20.883778    -20.883660
   3.44820    -20.883338    -20.883220
   3.43300    -20.882883    -20.882764
   3.41781    -20.882413    -20.882294
   3.40262    -20.881930    -20.881812
   3.38742    -20.881437    -20.881319
   3.37223    -20.880936    -20.880817
   3.35704    -20.880428    -20.880309
   3.34184    -20.879914    -20.879795
   3.32665    -20.879397    -20.879278
   3.31145    -20.878879    -20.878760
   3.29626    -20.878361    -20.878242
   3.28107    -20.877846    -20.877727
   3.26587    -20.877334    -20.877215
   3.25068    -20.876827    -20.876708
   3.23548    -20.876328    -20.876209
   3.22029    -20.875837    -20.875718
   3.20510    -20.875357    -20.875238
   3.18990    -20.874890    -20.874771
   3.17471    -20.874435    -20.874316
   3.15952    -20.873995    -20.873876
   3.14432    -20.873572    -20.873453
   3.12913    -20.873166    -20.873047
   3.11393    -20.872779    -20.872659
   3.09874    -20.872411    -20.872292
   3.08355    -20.872064    -20.871945
   3.06835    -20.871739    -20.871620
   3.05316    -20.871436    -20.871317
   3.03797    -20.871157    -20.871038
   3.02277    -20.870903    -20.870784
   3.00758    -20.870673    -20.870554
   2.99238    -20.870469    -20.870350
   2.97719    -20.870291    -20.870172
   2.96200    -20.870140    -20.870021
   2.94680    -20.870015    -20.869896
   2.93161    -20.869918    -20.869799
   2.91642    -20.869848    -20.869729
   2.90122    -20.869807    -20.869688
   2.88603    -20.869793    -20.869674
   2.88603    -20.869793    -20.869674
   2.87079    -20.869807    -20.869688
   2.85554    -20.869849    -20.869730
   2.84030    -20.869919    -20.869800
   2.82506    -20.870017    -20.869898
   2.80982    -20.870143    -20.870024
   2.79458    -20.870297    -20.870178
   2.77933    -20.870478    -20.870358
   2.76409    -20.870685    -20.870566
   2.74885    -20.870919    -20.870800
   2.73361    -20.871180    -20.871061
   2.71836    -20.871467    -20.871347
   2.70312    -20.871778    -20.871659
   2.68788    -20.872115    -20.871996
   2.67264    -20.872476    -20.872357
   2.65740    -20.872861    -20.872741
   2.64215    -20.873268    -20.873149
   2.62691    -20.873697    -20.873577
   2.61167    -20.874146    -20.874027
   2.59643    -20.874616    -20.874497
   2.58119    -20.875105    -20.874986
   2.56594    -20.875612    -20.875493
   2.55070    -20.876136    -20.876017
   2.53546    -20.876675    -20.876556
   2.52022    -20.877228    -20.877109
   2.50498    -20.877794    -20.877675
   2.48973    -20.878371    -20.878253
   2.47449    -20.878959    -20.878840
   2.45925    -20.879554    -20.879435
   2.44401    -20.880156    -20.880037
   2.42877    -20.880762    -20.880644
   2.41352    -20.881372    -20.881254
   2.39828    -20.881983    -20.881865
   2.38304    -20.882593    -20.882475
