#K-Path(1/A)         Spin-Up(eV)   Spin-down(eV)
# NKPTS & NBANDS: 292 128
# Band-Index    1
   0.00000    -21.166404    -21.166404
   0.01549    -21.166386    -21.166386
   0.03098    -21.166333    -21.166333
   0.04646    -21.166245    -21.166244
   0.06195    -21.166121    -21.166121
   0.07744    -21.165963    -21.165963
   0.09293    -21.165771    -21.165771
   0.10842    -21.165545    -21.165545
   0.12391    -21.165287    -21.165287
   0.13939    -21.164996    -21.164996
   0.15488    -21.164675    -21.164675
   0.17037    -21.164324    -21.164324
   0.18586    -21.163944    -21.163944
   0.20135    -21.163536    -21.163536
   0.21683    -21.163102    -21.163102
   0.23232    -21.162643    -21.162643
   0.24781    -21.162160    -21.162160
   0.26330    -21.161655    -21.161655
   0.27879    -21.161129    -21.161129
   0.29427    -21.160584    -21.160584
   0.30976    -21.160022    -21.160022
   0.32525    -21.159443    -21.159443
   0.34074    -21.158850    -21.158850
   0.35623    -21.158244    -21.158244
   0.37172    -21.157627    -21.157627
   0.38720    -21.157001    -21.157001
   0.40269    -21.156367    -21.156367
   0.41818    -21.155728    -21.155728
   0.43367    -21.155085    -21.155085
   0.44916    -21.154440    -21.154440
   0.46464    -21.153797    -21.153797
   0.48013    -21.153162    -21.153162
   0.49562    -21.152557    -21.152557
   0.51111    -21.152176    -21.152176
   0.51111    -21.152176    -21.152176
   0.52679    -21.152300    -21.152300
   0.54246    -21.152555    -21.152555
   0.55814    -21.152848    -21.152848
   0.57381    -21.153151    -21.153151
   0.58949    -21.153457    -21.153456
   0.60517    -21.153761    -21.153761
   0.62084    -21.154062    -21.154062
   0.63652    -21.154359    -21.154359
   0.65220    -21.154650    -21.154650
   0.66787    -21.154933    -21.154933
   0.68355    -21.155209    -21.155209
   0.69922    -21.155476    -21.155476
   0.71490    -21.155733    -21.155733
   0.73058    -21.155980    -21.155980
   0.74625    -21.156215    -21.156215
   0.76193    -21.156439    -21.156439
   0.77761    -21.156652    -21.156652
   0.79328    -21.156851    -21.156851
   0.80896    -21.157038    -21.157038
   0.82464    -21.157212    -21.157212
   0.84031    -21.157372    -21.157372
   0.85599    -21.157519    -21.157519
   0.87166    -21.157653    -21.157653
   0.88734    -21.157773    -21.157773
   0.90302    -21.157879    -21.157879
   0.91869    -21.157972    -21.157972
   0.93437    -21.158052    -21.158052
   0.95005    -21.158119    -21.158119
   0.96572    -21.158173    -21.158173
   0.98140    -21.158216    -21.158216
   0.99707    -21.158247    -21.158247
   1.01275    -21.158267    -21.158267
   1.02843    -21.158277    -21.158277
   1.04410    -21.158277    -21.158276
   1.05978    -21.158267    -21.158267
   1.07546    -21.158249    -21.158249
   1.09113    -21.158223    -21.158223
   1.10681    -21.158191    -21.158191
   1.12248    -21.158152    -21.158152
   1.13816    -21.158108    -21.158108
   1.15384    -21.158060    -21.158060
   1.15384    -21.158060    -21.158060
   1.17000    -21.158006    -21.158006
   1.18616    -21.157950    -21.157950
   1.20232    -21.157891    -21.157891
   1.21848    -21.157832    -21.157832
   1.23463    -21.157773    -21.157772
   1.25079    -21.157714    -21.157714
   1.26695    -21.157656    -21.157656
   1.28311    -21.157601    -21.157601
   1.29927    -21.157548    -21.157548
   1.31543    -21.157499    -21.157499
   1.33159    -21.157455    -21.157455
   1.34775    -21.157415    -21.157415
   1.36391    -21.157380    -21.157380
   1.38007    -21.157352    -21.157352
   1.39623    -21.157329    -21.157329
   1.41239    -21.157313    -21.157313
   1.42855    -21.157303    -21.157303
   1.44471    -21.157299    -21.157299
   1.44471    -21.157299    -21.157299
   1.46035    -21.157275    -21.157275
   1.47599    -21.157203    -21.157203
   1.49164    -21.157084    -21.157084
   1.50728    -21.156917    -21.156917
   1.52292    -21.156705    -21.156705
   1.53857    -21.156448    -21.156448
   1.55421    -21.156147    -21.156147
   1.56985    -21.155804    -21.155804
   1.58550    -21.155422    -21.155422
   1.60114    -21.155001    -21.155001
   1.61678    -21.154545    -21.154545
   1.63243    -21.154055    -21.154055
   1.64807    -21.153535    -21.153535
   1.66371    -21.152988    -21.152988
   1.67936    -21.152421    -21.152421
   1.69500    -21.151860    -21.151860
   1.71064    -21.151993    -21.151993
   1.72628    -21.152731    -21.152731
   1.74193    -21.153506    -21.153506
   1.75757    -21.154295    -21.154295
   1.77321    -21.155092    -21.155092
   1.78886    -21.155890    -21.155890
   1.80450    -21.156687    -21.156687
   1.82014    -21.157476    -21.157476
   1.83579    -21.158256    -21.158256
   1.85143    -21.159021    -21.159021
   1.86707    -21.159766    -21.159766
   1.88272    -21.160488    -21.160488
   1.89836    -21.161184    -21.161184
   1.91400    -21.161848    -21.161848
   1.92965    -21.162479    -21.162479
   1.94529    -21.163072    -21.163071
   1.96093    -21.163624    -21.163624
   1.97657    -21.164133    -21.164133
   1.99222    -21.164596    -21.164596
   2.00786    -21.165011    -21.165011
   2.02350    -21.165374    -21.165374
   2.03915    -21.165686    -21.165686
   2.05479    -21.165943    -21.165943
   2.07043    -21.166144    -21.166144
   2.08608    -21.166288    -21.166288
   2.10172    -21.166375    -21.166375
   2.11736    -21.166404    -21.166404
   2.11736    -21.166404    -21.166404
   2.13267    -21.166393    -21.166393
   2.14797    -21.166360    -21.166360
   2.16328    -21.166306    -21.166306
   2.17858    -21.166230    -21.166230
   2.19389    -21.166133    -21.166133
   2.20919    -21.166015    -21.166015
   2.22450    -21.165877    -21.165877
   2.23980    -21.165720    -21.165720
   2.25511    -21.165544    -21.165544
   2.27041    -21.165350    -21.165350
   2.28572    -21.165139    -21.165139
   2.30102    -21.164911    -21.164911
   2.31633    -21.164668    -21.164668
   2.33163    -21.164411    -21.164411
   2.34694    -21.164141    -21.164141
   2.36224    -21.163858    -21.163858
   2.37755    -21.163565    -21.163565
   2.39285    -21.163261    -21.163261
   2.40816    -21.162949    -21.162949
   2.42346    -21.162630    -21.162630
   2.43877    -21.162305    -21.162305
   2.45407    -21.161974    -21.161974
   2.46938    -21.161639    -21.161639
   2.48468    -21.161302    -21.161302
   2.49999    -21.160962    -21.160962
   2.51529    -21.160622    -21.160622
   2.53060    -21.160281    -21.160281
   2.54590    -21.159942    -21.159942
   2.56120    -21.159605    -21.159605
   2.57651    -21.159271    -21.159271
   2.59181    -21.158941    -21.158941
   2.60712    -21.158616    -21.158616
   2.62242    -21.158295    -21.158295
   2.63773    -21.157980    -21.157980
   2.65303    -21.157670    -21.157670
   2.66834    -21.157367    -21.157367
   2.68364    -21.157071    -21.157071
   2.69895    -21.156782    -21.156782
   2.71425    -21.156499    -21.156499
   2.72956    -21.156224    -21.156224
   2.74486    -21.155957    -21.155957
   2.76017    -21.155696    -21.155696
   2.77547    -21.155443    -21.155442
   2.79078    -21.155196    -21.155196
   2.80608    -21.154956    -21.154956
   2.82139    -21.154723    -21.154723
   2.83669    -21.154496    -21.154496
   2.85200    -21.154274    -21.154274
   2.86730    -21.154058    -21.154058
   2.88261    -21.153846    -21.153846
   2.89791    -21.153640    -21.153640
   2.91322    -21.153437    -21.153437
   2.92852    -21.153237    -21.153237
   2.94383    -21.153041    -21.153041
   2.95913    -21.152848    -21.152848
   2.97444    -21.152657    -21.152657
   2.98974    -21.152470    -21.152470
   3.00505    -21.152288    -21.152288
   3.02035    -21.152115    -21.152115
   3.03566    -21.151969    -21.151969
   3.05096    -21.151902    -21.151902
   3.05096    -21.160886    -21.160886
   3.06641    -21.160868    -21.160868
   3.08185    -21.160814    -21.160814
   3.09729    -21.160723    -21.160723
   3.11274    -21.160597    -21.160597
   3.12818    -21.160436    -21.160436
   3.14363    -21.160240    -21.160240
   3.15907    -21.160010    -21.160010
   3.17452    -21.159746    -21.159746
   3.18996    -21.159451    -21.159451
   3.20540    -21.159125    -21.159125
   3.22085    -21.158769    -21.158769
   3.23629    -21.158384    -21.158384
   3.25174    -21.157972    -21.157972
   3.26718    -21.157535    -21.157534
   3.28262    -21.157073    -21.157073
   3.29807    -21.156589    -21.156589
   3.31351    -21.156084    -21.156084
   3.32896    -21.155560    -21.155560
   3.34440    -21.155019    -21.155019
   3.35984    -21.154464    -21.154464
   3.37529    -21.153895    -21.153895
   3.39073    -21.153317    -21.153317
   3.40618    -21.152732    -21.152732
   3.42162    -21.152158    -21.152158
   3.43707    -21.152021    -21.152021
   3.45251    -21.152629    -21.152629
   3.46795    -21.153285    -21.153285
   3.48340    -21.153952    -21.153951
   3.49884    -21.154623    -21.154623
   3.51429    -21.155296    -21.155296
   3.52973    -21.155968    -21.155968
   3.54517    -21.156637    -21.156637
   3.56062    -21.157300    -21.157300
   3.57606    -21.157955    -21.157955
   3.59151    -21.158601    -21.158601
   3.60695    -21.159234    -21.159234
   3.62240    -21.159853    -21.159853
   3.63784    -21.160455    -21.160455
   3.65328    -21.161039    -21.161039
   3.66873    -21.161601    -21.161601
   3.68417    -21.162141    -21.162141
   3.69962    -21.162656    -21.162656
   3.71506    -21.163144    -21.163144
   3.73050    -21.163604    -21.163604
   3.74595    -21.164034    -21.164034
   3.76139    -21.164432    -21.164432
   3.77684    -21.164797    -21.164797
   3.79228    -21.165127    -21.165127
   3.80773    -21.165422    -21.165422
   3.82317    -21.165679    -21.165679
   3.83861    -21.165899    -21.165899
   3.85406    -21.166080    -21.166080
   3.86950    -21.166221    -21.166221
   3.88495    -21.166323    -21.166323
   3.90039    -21.166384    -21.166383
   3.91583    -21.166404    -21.166404
   3.91583    -21.166404    -21.166404
   3.93132    -21.166386    -21.166386
   3.94681    -21.166333    -21.166333
   3.96229    -21.166244    -21.166244
   3.97778    -21.166121    -21.166121
   3.99327    -21.165963    -21.165963
   4.00875    -21.165770    -21.165770
   4.02424    -21.165545    -21.165545
   4.03972    -21.165286    -21.165286
   4.05521    -21.164996    -21.164996
   4.07070    -21.164674    -21.164674
   4.08618    -21.164323    -21.164323
   4.10167    -21.163943    -21.163943
   4.11716    -21.163535    -21.163535
   4.13264    -21.163101    -21.163100
   4.14813    -21.162641    -21.162641
   4.16362    -21.162158    -21.162158
   4.17910    -21.161653    -21.161653
   4.19459    -21.161127    -21.161126
   4.21007    -21.160581    -21.160581
   4.22556    -21.160018    -21.160018
   4.24105    -21.159440    -21.159439
   4.25653    -21.158846    -21.158846
   4.27202    -21.158240    -21.158240
   4.28751    -21.157623    -21.157623
   4.30299    -21.156996    -21.156996
   4.31848    -21.156361    -21.156361
   4.33397    -21.155721    -21.155721
   4.34945    -21.155077    -21.155077
   4.36494    -21.154431    -21.154431
   4.38042    -21.153785    -21.153785
   4.39591    -21.153146    -21.153146
   4.41140    -21.152529    -21.152529
   4.42688    -21.152117    -21.152117
 
# Band-Index    2
   4.42688    -21.151513    -21.151513
   4.41140    -21.151106    -21.151106
   4.39591    -21.150502    -21.150502
   4.38042    -21.149884    -21.149884
   4.36494    -21.149269    -21.149269
   4.34945    -21.148662    -21.148662
   4.33397    -21.148065    -21.148065
   4.31848    -21.147479    -21.147479
   4.30299    -21.146906    -21.146906
   4.28751    -21.146348    -21.146348
   4.27202    -21.145804    -21.145804
   4.25653    -21.145277    -21.145277
   4.24105    -21.144767    -21.144767
   4.22556    -21.144275    -21.144275
   4.21007    -21.143803    -21.143802
   4.19459    -21.143349    -21.143349
   4.17910    -21.142916    -21.142916
   4.16362    -21.142505    -21.142505
   4.14813    -21.142115    -21.142115
   4.13264    -21.141748    -21.141748
   4.11716    -21.141404    -21.141404
   4.10167    -21.141083    -21.141083
   4.08618    -21.140786    -21.140786
   4.07070    -21.140513    -21.140513
   4.05521    -21.140266    -21.140266
   4.03972    -21.140043    -21.140043
   4.02424    -21.139846    -21.139846
   4.00875    -21.139675    -21.139675
   3.99327    -21.139529    -21.139529
   3.97778    -21.139410    -21.139410
   3.96229    -21.139317    -21.139317
   3.94681    -21.139251    -21.139251
   3.93132    -21.139211    -21.139211
   3.91583    -21.139198    -21.139198
   3.91583    -21.139198    -21.139198
   3.90039    -21.139214    -21.139214
   3.88495    -21.139261    -21.139261
   3.86950    -21.139341    -21.139341
   3.85406    -21.139452    -21.139452
   3.83861    -21.139594    -21.139594
   3.82317    -21.139767    -21.139767
   3.80773    -21.139970    -21.139970
   3.79228    -21.140203    -21.140203
   3.77684    -21.140466    -21.140466
   3.76139    -21.140758    -21.140758
   3.74595    -21.141077    -21.141077
   3.73050    -21.141424    -21.141424
   3.71506    -21.141796    -21.141796
   3.69962    -21.142194    -21.142194
   3.68417    -21.142615    -21.142615
   3.66873    -21.143060    -21.143060
   3.65328    -21.143527    -21.143527
   3.63784    -21.144014    -21.144014
   3.62240    -21.144521    -21.144521
   3.60695    -21.145045    -21.145045
   3.59151    -21.145585    -21.145584
   3.57606    -21.146139    -21.146139
   3.56062    -21.146707    -21.146707
   3.54517    -21.147285    -21.147285
   3.52973    -21.147874    -21.147874
   3.51429    -21.148470    -21.148470
   3.49884    -21.149071    -21.149071
   3.48340    -21.149676    -21.149676
   3.46795    -21.150282    -21.150282
   3.45251    -21.150883    -21.150883
   3.43707    -21.151440    -21.151440
   3.42162    -21.151259    -21.151259
   3.40618    -21.150647    -21.150647
   3.39073    -21.150029    -21.150029
   3.37529    -21.149423    -21.149422
   3.35984    -21.148831    -21.148831
   3.34440    -21.148258    -21.148258
   3.32896    -21.147704    -21.147704
   3.31351    -21.147171    -21.147171
   3.29807    -21.146661    -21.146661
   3.28262    -21.146175    -21.146175
   3.26718    -21.145714    -21.145714
   3.25174    -21.145280    -21.145280
   3.23629    -21.144873    -21.144873
   3.22085    -21.144496    -21.144496
   3.20540    -21.144148    -21.144148
   3.18996    -21.143830    -21.143830
   3.17452    -21.143544    -21.143544
   3.15907    -21.143290    -21.143290
   3.14363    -21.143069    -21.143069
   3.12818    -21.142881    -21.142881
   3.11274    -21.142726    -21.142726
   3.09729    -21.142605    -21.142605
   3.08185    -21.142519    -21.142519
   3.06641    -21.142467    -21.142467
   3.05096    -21.142450    -21.142450
   3.05096    -21.151400    -21.151400
   3.03566    -21.151332    -21.151331
   3.02035    -21.151181    -21.151181
   3.00505    -21.151000    -21.151000
   2.98974    -21.150807    -21.150807
   2.97444    -21.150607    -21.150606
   2.95913    -21.150400    -21.150400
   2.94383    -21.150188    -21.150188
   2.92852    -21.149972    -21.149971
   2.91322    -21.149750    -21.149750
   2.89791    -21.149525    -21.149524
   2.88261    -21.149294    -21.149294
   2.86730    -21.149059    -21.149059
   2.85200    -21.148820    -21.148820
   2.83669    -21.148576    -21.148576
   2.82139    -21.148328    -21.148328
   2.80608    -21.148076    -21.148076
   2.79078    -21.147820    -21.147820
   2.77547    -21.147561    -21.147561
   2.76017    -21.147298    -21.147298
   2.74486    -21.147033    -21.147033
   2.72956    -21.146764    -21.146764
   2.71425    -21.146494    -21.146493
   2.69895    -21.146221    -21.146221
   2.68364    -21.145947    -21.145947
   2.66834    -21.145672    -21.145671
   2.65303    -21.145396    -21.145396
   2.63773    -21.145120    -21.145120
   2.62242    -21.144845    -21.144845
   2.60712    -21.144571    -21.144571
   2.59181    -21.144298    -21.144298
   2.57651    -21.144027    -21.144027
   2.56120    -21.143759    -21.143759
   2.54590    -21.143494    -21.143494
   2.53060    -21.143232    -21.143232
   2.51529    -21.142975    -21.142975
   2.49999    -21.142722    -21.142721
   2.48468    -21.142474    -21.142474
   2.46938    -21.142232    -21.142231
   2.45407    -21.141996    -21.141996
   2.43877    -21.141767    -21.141767
   2.42346    -21.141545    -21.141545
   2.40816    -21.141331    -21.141331
   2.39285    -21.141125    -21.141125
   2.37755    -21.140927    -21.140927
   2.36224    -21.140739    -21.140739
   2.34694    -21.140560    -21.140560
   2.33163    -21.140390    -21.140390
   2.31633    -21.140231    -21.140231
   2.30102    -21.140082    -21.140082
   2.28572    -21.139944    -21.139944
   2.27041    -21.139816    -21.139816
   2.25511    -21.139700    -21.139700
   2.23980    -21.139596    -21.139596
   2.22450    -21.139503    -21.139503
   2.20919    -21.139423    -21.139423
   2.19389    -21.139354    -21.139354
   2.17858    -21.139298    -21.139298
   2.16328    -21.139254    -21.139254
   2.14797    -21.139223    -21.139223
   2.13267    -21.139204    -21.139204
   2.11736    -21.139198    -21.139198
   2.11736    -21.139198    -21.139198
   2.10172    -21.139222    -21.139222
   2.08608    -21.139295    -21.139295
   2.07043    -21.139415    -21.139415
   2.05479    -21.139583    -21.139583
   2.03915    -21.139798    -21.139798
   2.02350    -21.140057    -21.140057
   2.00786    -21.140361    -21.140361
   1.99222    -21.140706    -21.140706
   1.97657    -21.141092    -21.141092
   1.96093    -21.141516    -21.141516
   1.94529    -21.141976    -21.141976
   1.92965    -21.142470    -21.142470
   1.91400    -21.142994    -21.142994
   1.89836    -21.143546    -21.143546
   1.88272    -21.144124    -21.144124
   1.86707    -21.144723    -21.144723
   1.85143    -21.145342    -21.145342
   1.83579    -21.145976    -21.145976
   1.82014    -21.146621    -21.146621
   1.80450    -21.147275    -21.147275
   1.78886    -21.147934    -21.147934
   1.77321    -21.148594    -21.148594
   1.75757    -21.149252    -21.149252
   1.74193    -21.149902    -21.149902
   1.72628    -21.150540    -21.150540
   1.71064    -21.151143    -21.151143
   1.69500    -21.151143    -21.151143
   1.67936    -21.150453    -21.150453
   1.66371    -21.149761    -21.149761
   1.64807    -21.149095    -21.149095
   1.63243    -21.148461    -21.148461
   1.61678    -21.147865    -21.147865
   1.60114    -21.147308    -21.147308
   1.58550    -21.146794    -21.146794
   1.56985    -21.146327    -21.146327
   1.55421    -21.145909    -21.145909
   1.53857    -21.145541    -21.145541
   1.52292    -21.145227    -21.145227
   1.50728    -21.144968    -21.144968
   1.49164    -21.144765    -21.144764
   1.47599    -21.144619    -21.144619
   1.46035    -21.144531    -21.144531
   1.44471    -21.144502    -21.144502
   1.44471    -21.144502    -21.144502
   1.42855    -21.144501    -21.144501
   1.41239    -21.144501    -21.144501
   1.39623    -21.144500    -21.144500
   1.38007    -21.144499    -21.144499
   1.36391    -21.144498    -21.144498
   1.34775    -21.144497    -21.144496
   1.33159    -21.144496    -21.144495
   1.31543    -21.144495    -21.144495
   1.29927    -21.144495    -21.144495
   1.28311    -21.144495    -21.144495
   1.26695    -21.144497    -21.144497
   1.25079    -21.144500    -21.144500
   1.23463    -21.144504    -21.144504
   1.21848    -21.144511    -21.144511
   1.20232    -21.144520    -21.144520
   1.18616    -21.144532    -21.144532
   1.17000    -21.144547    -21.144547
   1.15384    -21.144566    -21.144566
   1.15384    -21.144566    -21.144566
