#K-Path(1/A) Energy-Level(eV)
# NKPTS & NBANDS: 172 128
# Band-Index    1
   0.00000    -21.169789
   0.01544    -21.169779
   0.03089    -21.169749
   0.04633    -21.169700
   0.06178    -21.169631
   0.07722    -21.169543
   0.09267    -21.169436
   0.10811    -21.169312
   0.12356    -21.169171
   0.13900    -21.169014
   0.15444    -21.168842
   0.16989    -21.168657
   0.18533    -21.168460
   0.20078    -21.168251
   0.21622    -21.168033
   0.23167    -21.167807
   0.24711    -21.167575
   0.26256    -21.167337
   0.27800    -21.167096
   0.29345    -21.166854
   0.30889    -21.166611
   0.32433    -21.166371
   0.33978    -21.166133
   0.35522    -21.165900
   0.37067    -21.165674
   0.38611    -21.165455
   0.40156    -21.165246
   0.41700    -21.165048
   0.43245    -21.164863
   0.44789    -21.164691
   0.46333    -21.164534
   0.47878    -21.164393
   0.49422    -21.164268
   0.50967    -21.164162
   0.52511    -21.164073
   0.54056    -21.164004
   0.55600    -21.163954
   0.57145    -21.163923
   0.58689    -21.163913
   0.58689    -21.163913
   0.60418    -21.163904
   0.62147    -21.163875
   0.63877    -21.163828
   0.65606    -21.163762
   0.67335    -21.163679
   0.69064    -21.163578
   0.70793    -21.163460
   0.72522    -21.163325
   0.74252    -21.163175
   0.75981    -21.163010
   0.77710    -21.162831
   0.79439    -21.162639
   0.79439    -21.162643
   0.80995    -21.162460
   0.82551    -21.162268
   0.84108    -21.162068
   0.85664    -21.161861
   0.87220    -21.161941
   0.88776    -21.162196
   0.90333    -21.162460
   0.91889    -21.162733
   0.93445    -21.163013
   0.95001    -21.163299
   0.96557    -21.163591
   0.98114    -21.163889
   0.99670    -21.164190
   1.01226    -21.164494
   1.02782    -21.164799
   1.04339    -21.165105
   1.05895    -21.165411
   1.07451    -21.165715
   1.09007    -21.166016
   1.10563    -21.166313
   1.12120    -21.166605
   1.13676    -21.166890
   1.15232    -21.167169
   1.16788    -21.167439
   1.18345    -21.167699
   1.19901    -21.167948
   1.21457    -21.168185
   1.23013    -21.168409
   1.24569    -21.168619
   1.26126    -21.168814
   1.27682    -21.168994
   1.29238    -21.169157
   1.30794    -21.169302
   1.32351    -21.169430
   1.33907    -21.169539
   1.35463    -21.169628
   1.37019    -21.169698
   1.38575    -21.169749
   1.40132    -21.169779
   1.41688    -21.169789
   1.41688    -21.169789
   1.43276    -21.169778
   1.44865    -21.169747
   1.46453    -21.169694
   1.48041    -21.169621
   1.49630    -21.169527
   1.51218    -21.169413
   1.52807    -21.169280
   1.54395    -21.169127
   1.55983    -21.168956
   1.57572    -21.168767
   1.59160    -21.168561
   1.60749    -21.168339
   1.62337    -21.168102
   1.63925    -21.167850
   1.65514    -21.167585
   1.67102    -21.167307
   1.68690    -21.167018
   1.70279    -21.166718
   1.71867    -21.166409
   1.73456    -21.166092
   1.75044    -21.165768
   1.76632    -21.165437
   1.78221    -21.165101
   1.79809    -21.164762
   1.81398    -21.164419
   1.82986    -21.164074
   1.84574    -21.163728
   1.86163    -21.163383
   1.87751    -21.163038
   1.89340    -21.162695
   1.90928    -21.162356
   1.92516    -21.162044
   1.92516    -21.162044
   1.94112    -21.162043
   1.95708    -21.162039
   1.97304    -21.162033
   1.98900    -21.162024
   2.00496    -21.162013
   2.02092    -21.162001
   2.03689    -21.161986
   2.05285    -21.161970
   2.06881    -21.161953
   2.08477    -21.161934
   2.10073    -21.161914
   2.11669    -21.161894
   2.13265    -21.161874
   2.14861    -21.161853
   2.16457    -21.161833
   2.18053    -21.161813
   2.19649    -21.161795
   2.21245    -21.161777
   2.22841    -21.161761
   2.24437    -21.161747
   2.26033    -21.161735
   2.27629    -21.161725
   2.29225    -21.161718
   2.30821    -21.161712
   2.32417    -21.161708
   2.34013    -21.161707
   2.34013    -21.161707
   2.35643    -21.161896
   2.37274    -21.162087
   2.38904    -21.162275
   2.40534    -21.162459
   2.42164    -21.162638
   2.43795    -21.162809
   2.45425    -21.162971
   2.47055    -21.163124
   2.48686    -21.163266
   2.50316    -21.163396
   2.51946    -21.163513
   2.53576    -21.163617
   2.55207    -21.163706
   2.56837    -21.163780
   2.58467    -21.163838
   2.60097    -21.163880
   2.61728    -21.163905
   2.63358    -21.163913
 
# Band-Index    2
   2.63358    -21.163815
   2.61728    -21.163806
   2.60097    -21.163781
   2.58467    -21.163739
   2.56837    -21.163681
   2.55207    -21.163608
   2.53576    -21.163519
   2.51946    -21.163415
   2.50316    -21.163298
   2.48686    -21.163167
   2.47055    -21.163026
   2.45425    -21.162873
   2.43795    -21.162710
   2.42164    -21.162539
   2.40534    -21.162361
   2.38904    -21.162177
   2.37274    -21.161989
   2.35643    -21.161798
   2.34013    -21.161702
   2.34013    -21.161702
   2.32417    -21.161703
   2.30821    -21.161707
   2.29225    -21.161713
   2.27629    -21.161721
   2.26033    -21.161731
   2.24437    -21.161742
   2.22841    -21.161755
   2.21245    -21.161769
   2.19649    -21.161783
   2.18053    -21.161799
   2.16457    -21.161816
   2.14861    -21.161833
   2.13265    -21.161850
   2.11669    -21.161868
   2.10073    -21.161885
   2.08477    -21.161901
   2.06881    -21.161917
   2.05285    -21.161931
   2.03689    -21.161944
   2.02092    -21.161957
   2.00496    -21.161967
   1.98900    -21.161976
   1.97304    -21.161983
   1.95708    -21.161989
   1.94112    -21.161992
   1.92516    -21.161993
   1.92516    -21.161993
   1.90928    -21.162253
   1.89340    -21.162593
   1.87751    -21.162935
   1.86163    -21.163279
   1.84574    -21.163625
   1.82986    -21.163970
   1.81398    -21.164314
   1.79809    -21.164657
   1.78221    -21.164996
   1.76632    -21.165332
   1.75044    -21.165662
   1.73456    -21.165986
   1.71867    -21.166303
   1.70279    -21.166611
   1.68690    -21.166911
   1.67102    -21.167200
   1.65514    -21.167477
   1.63925    -21.167742
   1.62337    -21.167993
   1.60749    -21.168230
   1.59160    -21.168452
   1.57572    -21.168657
   1.55983    -21.168846
   1.54395    -21.169017
   1.52807    -21.169170
   1.51218    -21.169303
   1.49630    -21.169417
   1.48041    -21.169510
   1.46453    -21.169584
   1.44865    -21.169636
   1.43276    -21.169668
   1.41688    -21.169678
   1.41688    -21.169678
   1.40132    -21.169668
   1.38575    -21.169638
   1.37019    -21.169588
   1.35463    -21.169518
   1.33907    -21.169428
   1.32351    -21.169319
   1.30794    -21.169192
   1.29238    -21.169047
   1.27682    -21.168884
   1.26126    -21.168705
   1.24569    -21.168510
   1.23013    -21.168300
   1.21457    -21.168077
   1.19901    -21.167840
   1.18345    -21.167591
   1.16788    -21.167332
   1.15232    -21.167062
   1.13676    -21.166784
   1.12120    -21.166499
   1.10563    -21.166207
   1.09007    -21.165911
   1.07451    -21.165610
   1.05895    -21.165307
   1.04339    -21.165002
   1.02782    -21.164696
   1.01226    -21.164391
   0.99670    -21.164087
   0.98114    -21.163786
   0.96557    -21.163489
   0.95001    -21.163198
   0.93445    -21.162911
   0.91889    -21.162632
   0.90333    -21.162360
   0.88776    -21.162096
   0.87220    -21.161841
   0.85664    -21.161758
   0.84108    -21.161964
   0.82551    -21.162164
   0.80995    -21.162355
   0.79439    -21.162538
   0.79439    -21.162541
   0.77710    -21.162733
   0.75981    -21.162912
   0.74252    -21.163077
   0.72522    -21.163227
   0.70793    -21.163361
   0.69064    -21.163479
   0.67335    -21.163581
   0.65606    -21.163664
   0.63877    -21.163730
   0.62147    -21.163777
   0.60418    -21.163805
   0.58689    -21.163815
   0.58689    -21.163815
   0.57145    -21.163825
   0.55600    -21.163855
   0.54056    -21.163905
   0.52511    -21.163974
   0.50967    -21.164063
   0.49422    -21.164169
   0.47878    -21.164293
   0.46333    -21.164434
   0.44789    -21.164591
   0.43245    -21.164762
   0.41700    -21.164947
   0.40156    -21.165145
   0.38611    -21.165353
   0.37067    -21.165571
   0.35522    -21.165798
   0.33978    -21.166030
   0.32433    -21.166267
   0.30889    -21.166507
   0.29345    -21.166749
   0.27800    -21.166991
   0.26256    -21.167232
   0.24711    -21.167469
   0.23167    -21.167701
   0.21622    -21.167926
   0.20078    -21.168144
   0.18533    -21.168352
   0.16989    -21.168549
   0.15444    -21.168733
   0.13900    -21.168905
   0.12356    -21.169061
   0.10811    -21.169202
   0.09267    -21.169326
   0.07722    -21.169432
   0.06178    -21.169520
   0.04633    -21.169589
   0.03089    -21.169638
   0.01544    -21.169668
   0.00000    -21.169678
 
# Band-Index    3
   0.00000    -21.156071
   0.01544    -21.156077
   0.03089    -21.156094
   0.04633    -21.156123
   0.06178    -21.156164
   0.07722    -21.156215
   0.09267    -21.156277
   0.10811    -21.156350
   0.12356    -21.156432
   0.13900    -21.156524
   0.15444    -21.156624
   0.16989    -21.156732
   0.18533    -21.156847
   0.20078    -21.156968
   0.21622    -21.157095
   0.23167    -21.157227
   0.24711    -21.157362
   0.26256    -21.157501
   0.27800    -21.157641
   0.29345    -21.157782
   0.30889    -21.157924
   0.32433    -21.158064
   0.33978    -21.158203
   0.35522    -21.158338
   0.37067    -21.158470
   0.38611    -21.158597
   0.40156    -21.158719
   0.41700    -21.158834
   0.43245    -21.158941
   0.44789    -21.159041
   0.46333    -21.159132
   0.47878    -21.159214
   0.49422    -21.159286
   0.50967    -21.159348
   0.52511    -21.159400
   0.54056    -21.159441
   0.55600    -21.159470
   0.57145    -21.159487
   0.58689    -21.159493
   0.58689    -21.159493
   0.60418    -21.159503
   0.62147    -21.159531
   0.63877    -21.159578
   0.65606    -21.159645
   0.67335    -21.159730
   0.69064    -21.159833
   0.70793    -21.159955
   0.72522    -21.160095
   0.74252    -21.160253
   0.75981    -21.160427
   0.77710    -21.160619
   0.79439    -21.160826
   0.79439    -21.160823
   0.80995    -21.161023
   0.82551    -21.161236
   0.84108    -21.161460
   0.85664    -21.161695
   0.87220    -21.161648
   0.88776    -21.161430
   0.90333    -21.161207
   0.91889    -21.160980
   0.93445    -21.160750
   0.95001    -21.160519
   0.96557    -21.160286
   0.98114    -21.160053
   0.99670    -21.159820
   1.01226    -21.159589
   1.02782    -21.159360
   1.04339    -21.159134
   1.05895    -21.158912
   1.07451    -21.158695
   1.09007    -21.158483
   1.10563    -21.158277
   1.12120    -21.158078
   1.13676    -21.157885
   1.15232    -21.157700
   1.16788    -21.157523
   1.18345    -21.157355
   1.19901    -21.157195
   1.21457    -21.157045
   1.23013    -21.156905
   1.24569    -21.156774
   1.26126    -21.156654
   1.27682    -21.156545
   1.29238    -21.156447
   1.30794    -21.156360
   1.32351    -21.156284
   1.33907    -21.156219
   1.35463    -21.156166
   1.37019    -21.156124
   1.38575    -21.156095
   1.40132    -21.156077
   1.41688    -21.156071
   1.41688    -21.156071
   1.43276    -21.156077
   1.44865    -21.156096
   1.46453    -21.156127
   1.48041    -21.156170
   1.49630    -21.156226
   1.51218    -21.156293
   1.52807    -21.156373
   1.54395    -21.156466
   1.55983    -21.156571
   1.57572    -21.156688
   1.59160    -21.156817
   1.60749    -21.156958
   1.62337    -21.157111
   1.63925    -21.157276
   1.65514    -21.157452
   1.67102    -21.157641
   1.68690    -21.157840
   1.70279    -21.158051
   1.71867    -21.158274
   1.73456    -21.158507
   1.75044    -21.158750
   1.76632    -21.159004
   1.78221    -21.159268
   1.79809    -21.159542
   1.81398    -21.159825
   1.82986    -21.160116
   1.84574    -21.160416
   1.86163    -21.160724
   1.87751    -21.161038
   1.89340    -21.161359
   1.90928    -21.161685
   1.92516    -21.161942
   1.92516    -21.161942
   1.94112    -21.161941
   1.95708    -21.161937
   1.97304    -21.161931
   1.98900    -21.161922
   2.00496    -21.161911
   2.02092    -21.161899
   2.03689    -21.161884
   2.05285    -21.161868
   2.06881    -21.161851
   2.08477    -21.161832
   2.10073    -21.161813
   2.11669    -21.161793
   2.13265    -21.161772
   2.14861    -21.161752
   2.16457    -21.161732
   2.18053    -21.161712
   2.19649    -21.161694
   2.21245    -21.161676
   2.22841    -21.161661
   2.24437    -21.161647
   2.26033    -21.161635
   2.27629    -21.161625
   2.29225    -21.161617
   2.30821    -21.161611
   2.32417    -21.161608
   2.34013    -21.161607
   2.34013    -21.161607
   2.35643    -21.161513
   2.37274    -21.161322
   2.38904    -21.161134
   2.40534    -21.160949
   2.42164    -21.160771
   2.43795    -21.160600
   2.45425    -21.160437
   2.47055    -21.160283
   2.48686    -21.160141
   2.50316    -21.160010
   2.51946    -21.159892
   2.53576    -21.159789
   2.55207    -21.159700
   2.56837    -21.159626
   2.58467    -21.159568
   2.60097    -21.159527
   2.61728    -21.159502
   2.63358    -21.159493
 
# Band-Index    4
   2.63358    -21.159392
   2.61728    -21.159400
   2.60097    -21.159425
   2.58467    -21.159467
   2.56837    -21.159524
   2.55207    -21.159598
   2.53576    -21.159687
   2.51946    -21.159790
   2.50316    -21.159908
   2.48686    -21.160038
   2.47055    -21.160181
   2.45425    -21.160334
   2.43795    -21.160497
   2.42164    -21.160668
   2.40534    -21.160846
   2.38904    -21.161030
   2.37274    -21.161218
   2.35643    -21.161409
   2.34013    -21.161600
   2.34013    -21.161600
   2.32417    -21.161601
   2.30821    -21.161605
   2.29225    -21.161611
   2.27629    -21.161619
   2.26033    -21.161629
   2.24437    -21.161640
   2.22841    -21.161653
   2.21245    -21.161667
   2.19649    -21.161682
   2.18053    -21.161698
   2.16457    -21.161714
   2.14861    -21.161732
   2.13265    -21.161749
   2.11669    -21.161766
   2.10073    -21.161783
   2.08477    -21.161799
   2.06881    -21.161815
   2.05285    -21.161829
   2.03689    -21.161843
   2.02092    -21.161855
   2.00496    -21.161865
   1.98900    -21.161874
   1.97304    -21.161882
   1.95708    -21.161887
   1.94112    -21.161890
   1.92516    -21.161891
   1.92516    -21.161891
   1.90928    -21.161584
   1.89340    -21.161258
   1.87751    -21.160937
   1.86163    -21.160623
   1.84574    -21.160316
   1.82986    -21.160016
   1.81398    -21.159725
   1.79809    -21.159442
   1.78221    -21.159169
   1.76632    -21.158905
   1.75044    -21.158651
   1.73456    -21.158408
   1.71867    -21.158175
   1.70279    -21.157953
   1.68690    -21.157742
   1.67102    -21.157542
   1.65514    -21.157354
   1.63925    -21.157177
   1.62337    -21.157013
   1.60749    -21.156860
   1.59160    -21.156719
   1.57572    -21.156590
   1.55983    -21.156473
   1.54395    -21.156368
   1.52807    -21.156275
   1.51218    -21.156195
   1.49630    -21.156128
   1.48041    -21.156072
   1.46453    -21.156029
   1.44865    -21.155998
   1.43276    -21.155979
   1.41688    -21.155973
   1.41688    -21.155973
   1.40132    -21.155979
   1.38575    -21.155997
   1.37019    -21.156026
   1.35463    -21.156068
   1.33907    -21.156121
   1.32351    -21.156186
   1.30794    -21.156262
   1.29238    -21.156349
   1.27682    -21.156447
   1.26126    -21.156556
   1.24569    -21.156676
   1.23013    -21.156806
   1.21457    -21.156947
   1.19901    -21.157096
   1.18345    -21.157256
   1.16788    -21.157424
   1.15232    -21.157601
   1.13676    -21.157786
   1.12120    -21.157978
   1.10563    -21.158178
   1.09007    -21.158384
   1.07451    -21.158595
   1.05895    -21.158812
   1.04339    -21.159034
   1.02782    -21.159259
   1.01226    -21.159488
   0.99670    -21.159719
   0.98114    -21.159951
   0.96557    -21.160184
   0.95001    -21.160417
   0.93445    -21.160648
   0.91889    -21.160878
   0.90333    -21.161104
   0.88776    -21.161327
   0.87220    -21.161545
   0.85664    -21.161596
   0.84108    -21.161361
   0.82551    -21.161137
   0.80995    -21.160924
   0.79439    -21.160724
   0.79439    -21.160723
   0.77710    -21.160516
   0.75981    -21.160325
   0.74252    -21.160150
   0.72522    -21.159993
   0.70793    -21.159853
   0.69064    -21.159731
   0.67335    -21.159628
   0.65606    -21.159543
   0.63877    -21.159477
   0.62147    -21.159429
   0.60418    -21.159401
   0.58689    -21.159392
   0.58689    -21.159392
   0.57145    -21.159386
   0.55600    -21.159368
   0.54056    -21.159339
   0.52511    -21.159298
   0.50967    -21.159247
   0.49422    -21.159185
   0.47878    -21.159113
   0.46333    -21.159031
   0.44789    -21.158940
   0.43245    -21.158840
   0.41700    -21.158733
   0.40156    -21.158618
   0.38611    -21.158497
   0.37067    -21.158370
   0.35522    -21.158238
   0.33978    -21.158103
   0.32433    -21.157964
   0.30889    -21.157824
   0.29345    -21.157683
   0.27800    -21.157542
   0.26256    -21.157402
   0.24711    -21.157263
   0.23167    -21.157128
   0.21622    -21.156996
   0.20078    -21.156869
   0.18533    -21.156748
   0.16989    -21.156633
   0.15444    -21.156525
   0.13900    -21.156425
   0.12356    -21.156334
   0.10811    -21.156252
   0.09267    -21.156180
   0.07722    -21.156117
   0.06178    -21.156066
   0.04633    -21.156026
   0.03089    -21.155997
   0.01544    -21.155979
   0.00000    -21.155973
 
# Band-Index    5
   0.00000    -15.884856
   0.01544    -15.884768
   0.03089    -15.884499
   0.04633    -15.884050
   0.06178    -15.883427
   0.07722    -15.882639
   0.09267    -15.881692
   0.10811    -15.880596
   0.12356    -15.879369
   0.13900    -15.878016
   0.15444    -15.876555
   0.16989    -15.875011
   0.18533    -15.873394
   0.20078    -15.871717
   0.21622    -15.870004
   0.23167    -15.868272
   0.24711    -15.866537
   0.26256    -15.864811
   0.27800    -15.863114
   0.29345    -15.861456
   0.30889    -15.859853
   0.32433    -15.858316
   0.33978    -15.856855
   0.35522    -15.855480
   0.37067    -15.854192
   0.38611    -15.852999
   0.40156    -15.851909
   0.41700    -15.850920
   0.43245    -15.850024
   0.44789    -15.849231
   0.46333    -15.848540
   0.47878    -15.847936
   0.49422    -15.847424
   0.50967    -15.846997
   0.52511    -15.846650
   0.54056    -15.846386
   0.55600    -15.846198
   0.57145    -15.846084
   0.58689    -15.846047
   0.58689    -15.846047
   0.60418    -15.845976
   0.62147    -15.845769
   0.63877    -15.845430
   0.65606    -15.844964
   0.67335    -15.844387
   0.69064    -15.843711
   0.70793    -15.842957
   0.72522    -15.842146
   0.74252    -15.841300
   0.75981    -15.840447
   0.77710    -15.839608
   0.79439    -15.838818
   0.79439    -15.838194
   0.80995    -15.837628
   0.82551    -15.837141
   0.84108    -15.836760
   0.85664    -15.836496
   0.87220    -15.836364
   0.88776    -15.836376
   0.90333    -15.836553
   0.91889    -15.836897
   0.93445    -15.837414
   0.95001    -15.838113
   0.96557    -15.838996
   0.98114    -15.840059
   0.99670    -15.841300
   1.01226    -15.842709
   1.02782    -15.844278
   1.04339    -15.845994
   1.05895    -15.847841
   1.07451    -15.849799
   1.09007    -15.851858
   1.10563    -15.853999
   1.12120    -15.856199
   1.13676    -15.858441
   1.15232    -15.860698
   1.16788    -15.862955
   1.18345    -15.865188
   1.19901    -15.867378
   1.21457    -15.869509
   1.23013    -15.871559
   1.24569    -15.873516
   1.26126    -15.875360
   1.27682    -15.877073
   1.29238    -15.878646
   1.30794    -15.880058
   1.32351    -15.881307
   1.33907    -15.882377
   1.35463    -15.883262
   1.37019    -15.883959
   1.38575    -15.884458
   1.40132    -15.884758
   1.41688    -15.884856
   1.41688    -15.884856
   1.43276    -15.884756
   1.44865    -15.884448
   1.46453    -15.883935
   1.48041    -15.883219
   1.49630    -15.882306
   1.51218    -15.881203
   1.52807    -15.879914
   1.54395    -15.878446
   1.55983    -15.876814
   1.57572    -15.875025
   1.59160    -15.873097
