#K-Path(1/A)         Spin-Up(eV)   Spin-down(eV)
# NKPTS & NBANDS: 170 128
# Band-Index    1
   0.00000    -21.644713    -21.644713
   0.01562    -21.644714    -21.644714
   0.03124    -21.644715    -21.644715
   0.04686    -21.644723    -21.644723
   0.06248    -21.644733    -21.644733
   0.07810    -21.644745    -21.644745
   0.09372    -21.644758    -21.644758
   0.10934    -21.644773    -21.644773
   0.12496    -21.644791    -21.644791
   0.14058    -21.644810    -21.644810
   0.15620    -21.644829    -21.644829
   0.17182    -21.644852    -21.644852
   0.18745    -21.644879    -21.644879
   0.20307    -21.644906    -21.644906
   0.21869    -21.644934    -21.644934
   0.23431    -21.644962    -21.644962
   0.24993    -21.644991    -21.644991
   0.26555    -21.645015    -21.645015
   0.28117    -21.645041    -21.645041
   0.29679    -21.645067    -21.645067
   0.31241    -21.645094    -21.645094
   0.32803    -21.645122    -21.645122
   0.34365    -21.645149    -21.645149
   0.35927    -21.645175    -21.645175
   0.37489    -21.645197    -21.645197
   0.39051    -21.645218    -21.645218
   0.40613    -21.645237    -21.645237
   0.42175    -21.645256    -21.645256
   0.43737    -21.645274    -21.645274
   0.45299    -21.645290    -21.645290
   0.46861    -21.645305    -21.645305
   0.48423    -21.645319    -21.645319
   0.49985    -21.645331    -21.645331
   0.51547    -21.645336    -21.645336
   0.53109    -21.645344    -21.645344
   0.54671    -21.645348    -21.645348
   0.56234    -21.645351    -21.645351
   0.57796    -21.645353    -21.645353
   0.57796    -21.645353    -21.645353
   0.59498    -21.645351    -21.645351
   0.61201    -21.645347    -21.645347
   0.62904    -21.645341    -21.645341
   0.64607    -21.645334    -21.645334
   0.66310    -21.645323    -21.645323
   0.68012    -21.645312    -21.645312
   0.69715    -21.645296    -21.645296
   0.71418    -21.645279    -21.645279
   0.73121    -21.645260    -21.645260
   0.74824    -21.645239    -21.645239
   0.76527    -21.645216    -21.645216
   0.78229    -21.645194    -21.645194
   0.78229    -21.645186    -21.645186
   0.79801    -21.645164    -21.645164
   0.81373    -21.645143    -21.645143
   0.82945    -21.645121    -21.645121
   0.84517    -21.645099    -21.645099
   0.86089    -21.645112    -21.645112
   0.87660    -21.645129    -21.645129
   0.89232    -21.645144    -21.645144
   0.90804    -21.645158    -21.645158
   0.92376    -21.645169    -21.645169
   0.93948    -21.645179    -21.645179
   0.95520    -21.645185    -21.645185
   0.97091    -21.645189    -21.645189
   0.98663    -21.645191    -21.645191
   1.00235    -21.645186    -21.645186
   1.01807    -21.645176    -21.645176
   1.03379    -21.645164    -21.645164
   1.04951    -21.645151    -21.645151
   1.06522    -21.645135    -21.645135
   1.08094    -21.645119    -21.645119
   1.09666    -21.645099    -21.645099
   1.11238    -21.645078    -21.645078
   1.12810    -21.645053    -21.645053
   1.14382    -21.645026    -21.645026
   1.15953    -21.644997    -21.644997
   1.17525    -21.644967    -21.644967
   1.19097    -21.644939    -21.644939
   1.20669    -21.644912    -21.644912
   1.22241    -21.644886    -21.644886
   1.23813    -21.644861    -21.644861
   1.25384    -21.644836    -21.644836
   1.26956    -21.644813    -21.644813
   1.28528    -21.644791    -21.644791
   1.30100    -21.644770    -21.644770
   1.31672    -21.644752    -21.644752
   1.33244    -21.644737    -21.644737
   1.34815    -21.644725    -21.644725
   1.36387    -21.644717    -21.644717
   1.37959    -21.644715    -21.644715
   1.39531    -21.644713    -21.644713
   1.39531    -21.644713    -21.644713
   1.41095    -21.644715    -21.644715
   1.42659    -21.644719    -21.644719
   1.44223    -21.644725    -21.644725
   1.45787    -21.644737    -21.644737
   1.47352    -21.644754    -21.644754
   1.48916    -21.644772    -21.644772
   1.50480    -21.644794    -21.644794
   1.52044    -21.644819    -21.644819
   1.53608    -21.644845    -21.644845
   1.55172    -21.644872    -21.644872
   1.56736    -21.644901    -21.644901
   1.58301    -21.644935    -21.644935
   1.59865    -21.644970    -21.644970
   1.61429    -21.645005    -21.645005
   1.62993    -21.645040    -21.645040
   1.64557    -21.645076    -21.645076
   1.66121    -21.645112    -21.645112
   1.67685    -21.645146    -21.645146
   1.69250    -21.645180    -21.645180
   1.70814    -21.645214    -21.645214
   1.72378    -21.645246    -21.645246
   1.73942    -21.645277    -21.645277
   1.75506    -21.645305    -21.645305
   1.77070    -21.645331    -21.645331
   1.78634    -21.645356    -21.645356
   1.80198    -21.645377    -21.645377
   1.81763    -21.645394    -21.645394
   1.83327    -21.645410    -21.645410
   1.84891    -21.645422    -21.645422
   1.86455    -21.645433    -21.645433
   1.88019    -21.645438    -21.645438
   1.89583    -21.645440    -21.645440
   1.89583    -21.645440    -21.645440
   1.91155    -21.645439    -21.645439
   1.92727    -21.645435    -21.645436
   1.94299    -21.645430    -21.645430
   1.95871    -21.645422    -21.645422
   1.97442    -21.645413    -21.645413
   1.99014    -21.645401    -21.645401
   2.00586    -21.645388    -21.645388
   2.02158    -21.645373    -21.645373
   2.03730    -21.645357    -21.645357
   2.05302    -21.645340    -21.645340
   2.06873    -21.645321    -21.645321
   2.08445    -21.645302    -21.645302
   2.10017    -21.645282    -21.645282
   2.11589    -21.645260    -21.645260
   2.13161    -21.645238    -21.645238
   2.14733    -21.645217    -21.645217
   2.16304    -21.645195    -21.645195
   2.17876    -21.645174    -21.645174
   2.19448    -21.645152    -21.645152
   2.21020    -21.645133    -21.645133
   2.22592    -21.645115    -21.645115
   2.24164    -21.645099    -21.645099
   2.25735    -21.645085    -21.645085
   2.27307    -21.645075    -21.645075
   2.28879    -21.645069    -21.645069
   2.30451    -21.645067    -21.645067
   2.30451    -21.645067    -21.645067
   2.32056    -21.645091    -21.645091
   2.33662    -21.645116    -21.645116
   2.35267    -21.645139    -21.645139
   2.36873    -21.645163    -21.645163
   2.38478    -21.645186    -21.645186
   2.40084    -21.645209    -21.645209
   2.41689    -21.645231    -21.645231
   2.43294    -21.645251    -21.645251
   2.44900    -21.645270    -21.645270
   2.46505    -21.645287    -21.645287
   2.48111    -21.645301    -21.645301
   2.49716    -21.645314    -21.645314
   2.51322    -21.645326    -21.645326
   2.52927    -21.645335    -21.645335
   2.54532    -21.645343    -21.645343
   2.56138    -21.645348    -21.645348
   2.57743    -21.645351    -21.645351
   2.59349    -21.645353    -21.645353
 
# Band-Index    2
   2.59349    -21.644788    -21.644788
   2.57743    -21.644785    -21.644785
   2.56138    -21.644786    -21.644786
   2.54532    -21.644788    -21.644788
   2.52927    -21.644794    -21.644794
   2.51322    -21.644803    -21.644803
   2.49716    -21.644814    -21.644814
   2.48111    -21.644827    -21.644827
   2.46505    -21.644842    -21.644842
   2.44900    -21.644858    -21.644858
   2.43294    -21.644876    -21.644876
   2.41689    -21.644895    -21.644895
   2.40084    -21.644916    -21.644916
   2.38478    -21.644939    -21.644939
   2.36873    -21.644963    -21.644963
   2.35267    -21.644986    -21.644986
   2.33662    -21.645010    -21.645010
   2.32056    -21.645035    -21.645035
   2.30451    -21.645058    -21.645058
   2.30451    -21.645058    -21.645058
   2.28879    -21.645059    -21.645059
   2.27307    -21.645056    -21.645056
   2.25735    -21.645051    -21.645051
   2.24164    -21.645041    -21.645041
   2.22592    -21.645028    -21.645028
   2.21020    -21.645013    -21.645013
   2.19448    -21.644995    -21.644995
   2.17876    -21.644977    -21.644977
   2.16304    -21.644957    -21.644957
   2.14733    -21.644937    -21.644937
   2.13161    -21.644916    -21.644916
   2.11589    -21.644893    -21.644893
   2.10017    -21.644871    -21.644871
   2.08445    -21.644846    -21.644846
   2.06873    -21.644822    -21.644822
   2.05302    -21.644799    -21.644799
   2.03730    -21.644777    -21.644777
   2.02158    -21.644758    -21.644758
   2.00586    -21.644740    -21.644740
   1.99014    -21.644723    -21.644723
   1.97442    -21.644709    -21.644709
   1.95871    -21.644697    -21.644697
   1.94299    -21.644687    -21.644687
   1.92727    -21.644682    -21.644682
   1.91155    -21.644680    -21.644680
   1.89583    -21.644680    -21.644680
   1.89583    -21.644680    -21.644680
   1.88019    -21.644680    -21.644680
   1.86455    -21.644680    -21.644680
   1.84891    -21.644679    -21.644679
   1.83327    -21.644679    -21.644679
   1.81763    -21.644680    -21.644680
   1.80198    -21.644681    -21.644681
   1.78634    -21.644681    -21.644681
   1.77070    -21.644681    -21.644681
   1.75506    -21.644682    -21.644682
   1.73942    -21.644684    -21.644684
   1.72378    -21.644686    -21.644686
   1.70814    -21.644687    -21.644687
   1.69250    -21.644689    -21.644689
   1.67685    -21.644690    -21.644690
   1.66121    -21.644692    -21.644692
   1.64557    -21.644693    -21.644693
   1.62993    -21.644693    -21.644693
   1.61429    -21.644695    -21.644695
   1.59865    -21.644696    -21.644696
   1.58301    -21.644697    -21.644697
   1.56736    -21.644698    -21.644698
   1.55172    -21.644699    -21.644699
   1.53608    -21.644701    -21.644701
   1.52044    -21.644702    -21.644702
   1.50480    -21.644704    -21.644704
   1.48916    -21.644705    -21.644705
   1.47352    -21.644707    -21.644707
   1.45787    -21.644705    -21.644705
   1.44223    -21.644706    -21.644706
   1.42659    -21.644708    -21.644708
   1.41095    -21.644710    -21.644710
   1.39531    -21.644710    -21.644710
   1.39531    -21.644710    -21.644710
   1.37959    -21.644710    -21.644710
   1.36387    -21.644706    -21.644706
   1.34815    -21.644705    -21.644705
   1.33244    -21.644705    -21.644706
   1.31672    -21.644708    -21.644708
   1.30100    -21.644710    -21.644710
   1.28528    -21.644713    -21.644713
   1.26956    -21.644716    -21.644716
   1.25384    -21.644718    -21.644718
   1.23813    -21.644721    -21.644721
   1.22241    -21.644724    -21.644724
   1.20669    -21.644729    -21.644729
   1.19097    -21.644735    -21.644735
   1.17525    -21.644742    -21.644742
   1.15953    -21.644747    -21.644747
   1.14382    -21.644756    -21.644756
   1.12810    -21.644766    -21.644766
   1.11238    -21.644777    -21.644777
   1.09666    -21.644788    -21.644788
   1.08094    -21.644802    -21.644802
   1.06522    -21.644815    -21.644815
   1.04951    -21.644830    -21.644830
   1.03379    -21.644846    -21.644846
   1.01807    -21.644864    -21.644864
   1.00235    -21.644883    -21.644883
   0.98663    -21.644902    -21.644902
   0.97091    -21.644922    -21.644922
   0.95520    -21.644942    -21.644942
   0.93948    -21.644964    -21.644964
   0.92376    -21.644985    -21.644985
   0.90804    -21.645007    -21.645007
   0.89232    -21.645030    -21.645030
   0.87660    -21.645053    -21.645053
   0.86089    -21.645076    -21.645076
   0.84517    -21.645092    -21.645092
   0.82945    -21.645068    -21.645068
   0.81373    -21.645043    -21.645043
   0.79801    -21.645017    -21.645017
   0.78229    -21.644993    -21.644993
   0.78229    -21.644989    -21.644989
   0.76527    -21.644961    -21.644961
   0.74824    -21.644936    -21.644936
   0.73121    -21.644911    -21.644911
   0.71418    -21.644887    -21.644887
   0.69715    -21.644865    -21.644865
   0.68012    -21.644845    -21.644845
   0.66310    -21.644826    -21.644826
   0.64607    -21.644810    -21.644810
   0.62904    -21.644798    -21.644798
   0.61201    -21.644790    -21.644790
   0.59498    -21.644786    -21.644786
   0.57796    -21.644788    -21.644788
   0.57796    -21.644788    -21.644788
   0.56234    -21.644788    -21.644788
   0.54671    -21.644787    -21.644787
   0.53109    -21.644787    -21.644787
   0.51547    -21.644787    -21.644787
   0.49985    -21.644783    -21.644783
   0.48423    -21.644781    -21.644781
   0.46861    -21.644780    -21.644780
   0.45299    -21.644778    -21.644778
   0.43737    -21.644775    -21.644775
   0.42175    -21.644772    -21.644772
   0.40613    -21.644770    -21.644770
   0.39051    -21.644767    -21.644767
   0.37489    -21.644765    -21.644765
   0.35927    -21.644761    -21.644761
   0.34365    -21.644758    -21.644758
   0.32803    -21.644754    -21.644754
   0.31241    -21.644750    -21.644750
   0.29679    -21.644747    -21.644747
   0.28117    -21.644744    -21.644744
   0.26555    -21.644741    -21.644741
   0.24993    -21.644739    -21.644739
   0.23431    -21.644736    -21.644736
   0.21869    -21.644733    -21.644733
   0.20307    -21.644730    -21.644730
   0.18745    -21.644727    -21.644727
   0.17182    -21.644724    -21.644724
   0.15620    -21.644723    -21.644723
   0.14058    -21.644721    -21.644721
   0.12496    -21.644719    -21.644719
   0.10934    -21.644717    -21.644717
   0.09372    -21.644716    -21.644716
   0.07810    -21.644715    -21.644715
   0.06248    -21.644714    -21.644714
   0.04686    -21.644713    -21.644713
   0.03124    -21.644712    -21.644712
   0.01562    -21.644711    -21.644711
   0.00000    -21.644710    -21.644710
 
# Band-Index    3
   0.00000    -21.644703    -21.644703
   0.01562    -21.644703    -21.644704
   0.03124    -21.644704    -21.644704
   0.04686    -21.644705    -21.644705
   0.06248    -21.644705    -21.644705
   0.07810    -21.644706    -21.644706
   0.09372    -21.644707    -21.644707
   0.10934    -21.644708    -21.644708
   0.12496    -21.644710    -21.644710
   0.14058    -21.644712    -21.644712
   0.15620    -21.644714    -21.644714
   0.17182    -21.644715    -21.644715
   0.18745    -21.644718    -21.644718
   0.20307    -21.644721    -21.644721
   0.21869    -21.644724    -21.644724
   0.23431    -21.644728    -21.644728
   0.24993    -21.644730    -21.644730
   0.26555    -21.644733    -21.644733
   0.28117    -21.644735    -21.644735
   0.29679    -21.644738    -21.644738
   0.31241    -21.644742    -21.644742
   0.32803    -21.644746    -21.644746
   0.34365    -21.644749    -21.644749
   0.35927    -21.644753    -21.644753
   0.37489    -21.644756    -21.644756
   0.39051    -21.644759    -21.644759
   0.40613    -21.644761    -21.644761
   0.42175    -21.644764    -21.644764
   0.43737    -21.644767    -21.644767
   0.45299    -21.644769    -21.644769
   0.46861    -21.644771    -21.644771
   0.48423    -21.644773    -21.644773
   0.49985    -21.644774    -21.644774
   0.51547    -21.644778    -21.644778
   0.53109    -21.644778    -21.644778
   0.54671    -21.644778    -21.644778
   0.56234    -21.644779    -21.644779
   0.57796    -21.644779    -21.644779
   0.57796    -21.644779    -21.644779
   0.59498    -21.644777    -21.644777
   0.61201    -21.644777    -21.644777
   0.62904    -21.644775    -21.644775
   0.64607    -21.644773    -21.644773
   0.66310    -21.644769    -21.644769
   0.68012    -21.644765    -21.644765
   0.69715    -21.644760    -21.644760
   0.71418    -21.644755    -21.644755
   0.73121    -21.644749    -21.644749
   0.74824    -21.644744    -21.644744
   0.76527    -21.644738    -21.644738
   0.78229    -21.644732    -21.644732
   0.78229    -21.644736    -21.644736
   0.79801    -21.644730    -21.644730
   0.81373    -21.644727    -21.644727
   0.82945    -21.644722    -21.644722
   0.84517    -21.644717    -21.644717
   0.86089    -21.644711    -21.644711
   0.87660    -21.644705    -21.644705
   0.89232    -21.644700    -21.644700
   0.90804    -21.644695    -21.644695
   0.92376    -21.644691    -21.644691
   0.93948    -21.644689    -21.644689
   0.95520    -21.644686    -21.644686
   0.97091    -21.644683    -21.644683
   0.98663    -21.644681    -21.644681
   1.00235    -21.644678    -21.644678
   1.01807    -21.644675    -21.644675
   1.03379    -21.644674    -21.644674
   1.04951    -21.644673    -21.644673
   1.06522    -21.644674    -21.644674
   1.08094    -21.644674    -21.644674
   1.09666    -21.644674    -21.644674
   1.11238    -21.644677    -21.644677
   1.12810    -21.644678    -21.644678
   1.14382    -21.644680    -21.644680
   1.15953    -21.644681    -21.644681
   1.17525    -21.644683    -21.644683
   1.19097    -21.644686    -21.644686
   1.20669    -21.644687    -21.644687
   1.22241    -21.644689    -21.644689
   1.23813    -21.644692    -21.644692
   1.25384    -21.644695    -21.644695
   1.26956    -21.644698    -21.644698
   1.28528    -21.644701    -21.644701
   1.30100    -21.644703    -21.644703
   1.31672    -21.644704    -21.644704
   1.33244    -21.644705    -21.644705
   1.34815    -21.644704    -21.644704
   1.36387    -21.644704    -21.644704
   1.37959    -21.644704    -21.644704
   1.39531    -21.644703    -21.644703
   1.39531    -21.644703    -21.644703
   1.41095    -21.644704    -21.644704
   1.42659    -21.644702    -21.644702
   1.44223    -21.644701    -21.644701
   1.45787    -21.644700    -21.644700
   1.47352    -21.644701    -21.644701
   1.48916    -21.644700    -21.644700
   1.50480    -21.644698    -21.644698
   1.52044    -21.644697    -21.644697
   1.53608    -21.644696    -21.644696
   1.55172    -21.644694    -21.644694
   1.56736    -21.644692    -21.644692
   1.58301    -21.644691    -21.644691
   1.59865    -21.644691    -21.644691
   1.61429    -21.644690    -21.644690
   1.62993    -21.644688    -21.644688
   1.64557    -21.644688    -21.644688
   1.66121    -21.644686    -21.644686
   1.67685    -21.644685    -21.644685
   1.69250    -21.644684    -21.644684
   1.70814    -21.644681    -21.644681
   1.72378    -21.644680    -21.644680
   1.73942    -21.644678    -21.644678
   1.75506    -21.644677    -21.644677
   1.77070    -21.644676    -21.644676
   1.78634    -21.644676    -21.644676
   1.80198    -21.644676    -21.644676
   1.81763    -21.644675    -21.644675
   1.83327    -21.644674    -21.644674
   1.84891    -21.644674    -21.644674
   1.86455    -21.644675    -21.644675
   1.88019    -21.644675    -21.644675
   1.89583    -21.644675    -21.644675
   1.89583    -21.644675    -21.644675
   1.91155    -21.644675    -21.644675
   1.92727    -21.644677    -21.644677
   1.94299    -21.644678    -21.644678
   1.95871    -21.644679    -21.644679
   1.97442    -21.644681    -21.644681
   1.99014    -21.644682    -21.644682
   2.00586    -21.644684    -21.644684
   2.02158    -21.644687    -21.644687
   2.03730    -21.644691    -21.644691
   2.05302    -21.644696    -21.644696
   2.06873    -21.644701    -21.644701
   2.08445    -21.644707    -21.644707
   2.10017    -21.644714    -21.644714
   2.11589    -21.644720    -21.644720
   2.13161    -21.644726    -21.644726
   2.14733    -21.644733    -21.644733
   2.16304    -21.644742    -21.644742
   2.17876    -21.644751    -21.644751
   2.19448    -21.644760    -21.644760
   2.21020    -21.644770    -21.644770
   2.22592    -21.644779    -21.644779
   2.24164    -21.644788    -21.644788
   2.25735    -21.644796    -21.644796
   2.27307    -21.644802    -21.644802
   2.28879    -21.644806    -21.644806
   2.30451    -21.644807    -21.644807
   2.30451    -21.644807    -21.644807
   2.32056    -21.644808    -21.644808
   2.33662    -21.644808    -21.644808
   2.35267    -21.644807    -21.644807
   2.36873    -21.644806    -21.644806
   2.38478    -21.644805    -21.644805
   2.40084    -21.644803    -21.644803
   2.41689    -21.644800    -21.644800
   2.43294    -21.644799    -21.644799
   2.44900    -21.644798    -21.644798
   2.46505    -21.644797    -21.644798
   2.48111    -21.644793    -21.644793
   2.49716    -21.644790    -21.644790
   2.51322    -21.644788    -21.644788
   2.52927    -21.644788    -21.644788
   2.54532    -21.644785    -21.644785
   2.56138    -21.644783    -21.644783
   2.57743    -21.644780    -21.644780
