#K-Path(1/A) Energy-Level(eV)
# NKPTS & NBANDS: 251 120
# Band-Index    1
   0.00000    -20.783799
   0.01605    -20.783787
   0.03209    -20.783750
   0.04814    -20.783688
   0.06418    -20.783603
   0.08023    -20.783493
   0.09627    -20.783361
   0.11232    -20.783207
   0.12836    -20.783032
   0.14441    -20.782838
   0.16045    -20.782626
   0.17650    -20.782398
   0.19254    -20.782154
   0.20859    -20.781898
   0.22463    -20.781630
   0.24068    -20.781353
   0.25672    -20.781069
   0.27277    -20.780779
   0.28881    -20.780487
   0.30486    -20.780193
   0.32090    -20.779900
   0.33695    -20.779610
   0.35299    -20.779325
   0.36904    -20.779048
   0.38508    -20.778780
   0.40113    -20.778522
   0.41717    -20.778278
   0.43322    -20.778049
   0.44926    -20.777836
   0.46531    -20.777642
   0.48135    -20.777467
   0.49740    -20.777312
   0.51344    -20.777180
   0.52949    -20.777070
   0.54553    -20.776983
   0.56158    -20.776921
   0.57762    -20.776883
   0.59367    -20.776871
   0.59367    -20.776871
   0.60991    -20.776862
   0.62615    -20.776837
   0.64240    -20.776796
   0.65864    -20.776739
   0.67488    -20.776667
   0.69112    -20.776580
   0.70737    -20.776478
   0.72361    -20.776363
   0.73985    -20.776236
   0.75609    -20.776096
   0.77234    -20.775946
   0.78858    -20.775787
   0.80482    -20.775619
   0.82106    -20.775444
   0.83731    -20.775263
   0.85355    -20.775079
   0.86979    -20.774891
   0.88603    -20.774702
   0.88603    -20.774702
   0.90218    -20.774703
   0.91833    -20.774708
   0.93447    -20.774715
   0.95062    -20.774726
   0.96676    -20.774739
   0.98291    -20.774754
   0.99905    -20.774772
   1.01520    -20.774791
   1.03135    -20.774813
   1.04749    -20.774836
   1.06364    -20.774859
   1.07978    -20.774884
   1.09593    -20.774909
   1.11207    -20.774934
   1.12822    -20.774958
   1.14436    -20.774982
   1.16051    -20.775004
   1.17666    -20.775026
   1.19280    -20.775045
   1.20895    -20.775062
   1.22509    -20.775078
   1.24124    -20.775090
   1.25738    -20.775101
   1.27353    -20.775108
   1.28968    -20.775112
   1.30582    -20.775114
   1.30582    -20.775114
   1.32132    -20.775477
   1.33683    -20.775846
   1.35233    -20.776217
   1.36783    -20.776591
   1.38333    -20.776965
   1.39883    -20.777340
   1.41434    -20.777714
   1.42984    -20.778087
   1.44534    -20.778456
   1.46084    -20.778822
   1.47634    -20.779182
   1.49184    -20.779537
   1.50735    -20.779884
   1.52285    -20.780222
   1.53835    -20.780552
   1.55385    -20.780871
   1.56935    -20.781178
   1.58486    -20.781473
   1.60036    -20.781754
   1.61586    -20.782021
   1.63136    -20.782272
   1.64686    -20.782506
   1.66237    -20.782724
   1.67787    -20.782923
   1.69337    -20.783104
   1.70887    -20.783264
   1.72437    -20.783405
   1.73988    -20.783524
   1.75538    -20.783623
   1.77088    -20.783700
   1.78638    -20.783755
   1.80188    -20.783788
   1.81739    -20.783799
   1.81739    -20.783799
   1.83277    -20.783789
   1.84816    -20.783760
   1.86355    -20.783711
   1.87894    -20.783644
   1.89432    -20.783557
   1.90971    -20.783452
   1.92510    -20.783330
   1.94049    -20.783191
   1.95588    -20.783037
   1.97126    -20.782868
   1.98665    -20.782686
   2.00204    -20.782492
   2.01743    -20.782287
   2.03281    -20.782073
   2.04820    -20.781851
   2.06359    -20.781622
   2.07898    -20.781389
   2.09436    -20.781152
   2.10975    -20.780914
   2.12514    -20.780675
   2.14053    -20.780438
   2.15591    -20.780205
   2.17130    -20.779976
   2.18669    -20.779753
   2.20208    -20.779538
   2.21747    -20.779333
   2.23285    -20.779138
   2.24824    -20.778956
   2.26363    -20.778787
   2.27902    -20.778632
   2.29440    -20.778493
   2.30979    -20.778371
   2.32518    -20.778266
   2.34057    -20.778179
   2.35595    -20.778110
   2.37134    -20.778061
   2.38673    -20.778031
   2.40212    -20.778021
   2.40212    -20.778021
   2.41875    -20.778011
   2.43537    -20.777979
   2.45200    -20.777926
   2.46863    -20.777853
   2.48526    -20.777759
   2.50189    -20.777646
   2.51851    -20.777513
   2.53514    -20.777362
   2.55177    -20.777192
   2.56840    -20.777006
   2.58503    -20.776804
   2.60166    -20.776588
   2.61828    -20.776358
   2.61828    -20.776358
   2.63387    -20.776130
   2.64945    -20.775893
   2.66504    -20.775646
   2.68062    -20.775391
   2.69621    -20.775130
   2.71179    -20.774987
   2.72738    -20.775294
   2.74296    -20.775611
   2.75855    -20.775936
   2.77414    -20.776269
   2.78972    -20.776609
   2.80531    -20.776954
   2.82089    -20.777303
   2.83648    -20.777656
   2.85206    -20.778010
   2.86765    -20.778366
   2.88323    -20.778720
   2.89882    -20.779073
   2.91440    -20.779422
   2.92999    -20.779767
   2.94557    -20.780105
   2.96116    -20.780437
   2.97674    -20.780760
   2.99233    -20.781072
   3.00791    -20.781374
   3.02350    -20.781663
   3.03908    -20.781938
   3.05467    -20.782198
   3.07025    -20.782442
   3.08584    -20.782668
   3.10142    -20.782876
   3.11701    -20.783066
   3.13260    -20.783235
   3.14818    -20.783383
   3.16377    -20.783509
   3.17935    -20.783613
   3.19494    -20.783694
   3.21052    -20.783752
   3.22611    -20.783787
   3.24169    -20.783799
   3.24169    -20.776871
   3.25769    -20.776861
   3.27369    -20.776834
   3.28969    -20.776788
   3.30568    -20.776725
   3.32168    -20.776645
   3.33768    -20.776548
   3.35368    -20.776435
   3.36968    -20.776307
   3.38567    -20.776164
   3.40167    -20.776008
   3.41767    -20.775841
   3.43367    -20.775662
   3.44967    -20.775474
   3.46566    -20.775277
   3.48166    -20.775073
   3.49766    -20.774864
   3.51366    -20.774914
   3.52966    -20.775145
   3.52966    -20.775149
   3.54575    -20.775383
   3.56183    -20.775616
   3.57792    -20.775847
   3.59401    -20.776073
   3.61010    -20.776293
   3.62619    -20.776506
   3.64228    -20.776710
   3.65837    -20.776904
   3.67446    -20.777086
   3.69055    -20.777255
   3.70664    -20.777410
   3.72273    -20.777549
   3.73882    -20.777672
   3.75491    -20.777777
   3.77100    -20.777864
   3.78709    -20.777933
   3.80318    -20.777982
   3.81927    -20.778012
   3.83536    -20.778021
 
# Band-Index    2
   3.83536    -20.778021
   3.81927    -20.778012
   3.80318    -20.777982
   3.78709    -20.777933
   3.77100    -20.777864
   3.75491    -20.777777
   3.73882    -20.777672
   3.72273    -20.777549
   3.70664    -20.777410
   3.69055    -20.777255
   3.67446    -20.777086
   3.65837    -20.776904
   3.64228    -20.776710
   3.62619    -20.776506
   3.61010    -20.776293
   3.59401    -20.776073
   3.57792    -20.775847
   3.56183    -20.775616
   3.54575    -20.775383
   3.52966    -20.775149
   3.52966    -20.775145
   3.51366    -20.774914
   3.49766    -20.774864
   3.48166    -20.775073
   3.46566    -20.775277
   3.44967    -20.775474
   3.43367    -20.775662
   3.41767    -20.775841
   3.40167    -20.776008
   3.38567    -20.776164
   3.36968    -20.776307
   3.35368    -20.776435
   3.33768    -20.776548
   3.32168    -20.776645
   3.30568    -20.776725
   3.28969    -20.776788
   3.27369    -20.776834
   3.25769    -20.776861
   3.24169    -20.776871
   3.24169    -20.783799
   3.22611    -20.783787
   3.21052    -20.783752
   3.19494    -20.783694
   3.17935    -20.783613
   3.16377    -20.783509
   3.14818    -20.783383
   3.13260    -20.783235
   3.11701    -20.783066
   3.10142    -20.782876
   3.08584    -20.782668
   3.07025    -20.782442
   3.05467    -20.782198
   3.03908    -20.781938
   3.02350    -20.781663
   3.00791    -20.781374
   2.99233    -20.781072
   2.97674    -20.780760
   2.96116    -20.780437
   2.94557    -20.780105
   2.92999    -20.779767
   2.91440    -20.779422
   2.89882    -20.779073
   2.88323    -20.778720
   2.86765    -20.778366
   2.85206    -20.778010
   2.83648    -20.777656
   2.82089    -20.777303
   2.80531    -20.776954
   2.78972    -20.776609
   2.77414    -20.776269
   2.75855    -20.775936
   2.74296    -20.775611
   2.72738    -20.775294
   2.71179    -20.774987
   2.69621    -20.775130
   2.68062    -20.775391
   2.66504    -20.775646
   2.64945    -20.775893
   2.63387    -20.776130
   2.61828    -20.776358
   2.61828    -20.776358
   2.60166    -20.776588
   2.58503    -20.776804
   2.56840    -20.777006
   2.55177    -20.777192
   2.53514    -20.777362
   2.51851    -20.777513
   2.50189    -20.777646
   2.48526    -20.777759
   2.46863    -20.777853
   2.45200    -20.777926
   2.43537    -20.777979
   2.41875    -20.778011
   2.40212    -20.778021
   2.40212    -20.778021
   2.38673    -20.778031
   2.37134    -20.778061
   2.35595    -20.778110
   2.34057    -20.778179
   2.32518    -20.778266
   2.30979    -20.778371
   2.29440    -20.778493
   2.27902    -20.778632
   2.26363    -20.778787
   2.24824    -20.778956
   2.23285    -20.779138
   2.21747    -20.779333
   2.20208    -20.779538
   2.18669    -20.779753
   2.17130    -20.779976
   2.15591    -20.780205
   2.14053    -20.780438
   2.12514    -20.780675
   2.10975    -20.780914
   2.09436    -20.781152
   2.07898    -20.781389
   2.06359    -20.781622
   2.04820    -20.781851
   2.03281    -20.782073
   2.01743    -20.782287
   2.00204    -20.782492
   1.98665    -20.782686
   1.97126    -20.782868
   1.95588    -20.783037
   1.94049    -20.783191
   1.92510    -20.783330
   1.90971    -20.783452
   1.89432    -20.783557
   1.87894    -20.783644
   1.86355    -20.783711
   1.84816    -20.783760
   1.83277    -20.783789
   1.81739    -20.783799
   1.81739    -20.783799
   1.80188    -20.783788
   1.78638    -20.783755
   1.77088    -20.783700
   1.75538    -20.783623
   1.73988    -20.783524
   1.72437    -20.783405
   1.70887    -20.783264
   1.69337    -20.783104
   1.67787    -20.782923
   1.66237    -20.782724
   1.64686    -20.782506
   1.63136    -20.782272
   1.61586    -20.782021
   1.60036    -20.781754
   1.58486    -20.781473
   1.56935    -20.781178
   1.55385    -20.780871
   1.53835    -20.780552
   1.52285    -20.780222
   1.50735    -20.779884
   1.49184    -20.779537
   1.47634    -20.779182
   1.46084    -20.778822
   1.44534    -20.778456
   1.42984    -20.778087
   1.41434    -20.777714
   1.39883    -20.777340
   1.38333    -20.776965
   1.36783    -20.776591
   1.35233    -20.776217
   1.33683    -20.775846
   1.32132    -20.775477
   1.30582    -20.775114
   1.30582    -20.775114
   1.28968    -20.775112
   1.27353    -20.775108
   1.25738    -20.775101
   1.24124    -20.775090
   1.22509    -20.775078
   1.20895    -20.775062
   1.19280    -20.775045
   1.17666    -20.775026
   1.16051    -20.775004
   1.14436    -20.774982
   1.12822    -20.774958
   1.11207    -20.774934
   1.09593    -20.774909
   1.07978    -20.774884
   1.06364    -20.774859
   1.04749    -20.774836
   1.03135    -20.774813
   1.01520    -20.774791
   0.99905    -20.774772
   0.98291    -20.774754
   0.96676    -20.774739
   0.95062    -20.774726
   0.93447    -20.774715
   0.91833    -20.774708
   0.90218    -20.774703
   0.88603    -20.774702
   0.88603    -20.774702
   0.86979    -20.774891
   0.85355    -20.775079
   0.83731    -20.775263
   0.82106    -20.775444
   0.80482    -20.775619
   0.78858    -20.775787
   0.77234    -20.775946
   0.75609    -20.776096
   0.73985    -20.776236
   0.72361    -20.776363
   0.70737    -20.776478
   0.69112    -20.776580
   0.67488    -20.776667
   0.65864    -20.776739
   0.64240    -20.776796
   0.62615    -20.776837
   0.60991    -20.776862
   0.59367    -20.776871
   0.59367    -20.776871
   0.57762    -20.776883
   0.56158    -20.776921
   0.54553    -20.776983
   0.52949    -20.777070
   0.51344    -20.777180
   0.49740    -20.777312
   0.48135    -20.777467
   0.46531    -20.777642
   0.44926    -20.777836
   0.43322    -20.778049
   0.41717    -20.778278
   0.40113    -20.778522
   0.38508    -20.778780
   0.36904    -20.779048
   0.35299    -20.779325
   0.33695    -20.779610
   0.32090    -20.779900
   0.30486    -20.780193
   0.28881    -20.780487
   0.27277    -20.780779
   0.25672    -20.781069
   0.24068    -20.781353
   0.22463    -20.781630
   0.20859    -20.781898
   0.19254    -20.782154
   0.17650    -20.782398
   0.16045    -20.782626
   0.14441    -20.782838
   0.12836    -20.783032
   0.11232    -20.783207
   0.09627    -20.783361
   0.08023    -20.783493
   0.06418    -20.783603
   0.04814    -20.783688
   0.03209    -20.783750
   0.01605    -20.783787
   0.00000    -20.783799
 
# Band-Index    3
   0.00000    -20.768492
   0.01605    -20.768500
   0.03209    -20.768521
   0.04814    -20.768558
   0.06418    -20.768608
   0.08023    -20.768672
   0.09627    -20.768749
   0.11232    -20.768839
   0.12836    -20.768941
   0.14441    -20.769054
   0.16045    -20.769177
   0.17650    -20.769310
   0.19254    -20.769452
   0.20859    -20.769601
   0.22463    -20.769757
   0.24068    -20.769918
   0.25672    -20.770083
   0.27277    -20.770252
   0.28881    -20.770422
   0.30486    -20.770594
   0.32090    -20.770764
   0.33695    -20.770933
   0.35299    -20.771098
   0.36904    -20.771260
   0.38508    -20.771416
   0.40113    -20.771565
   0.41717    -20.771707
   0.43322    -20.771840
   0.44926    -20.771963
   0.46531    -20.772075
   0.48135    -20.772177
   0.49740    -20.772266
   0.51344    -20.772343
   0.52949    -20.772407
   0.54553    -20.772458
   0.56158    -20.772494
   0.57762    -20.772516
   0.59367    -20.772523
   0.59367    -20.772523
   0.60991    -20.772531
   0.62615    -20.772556
   0.64240    -20.772596
   0.65864    -20.772653
   0.67488    -20.772725
   0.69112    -20.772812
   0.70737    -20.772913
   0.72361    -20.773028
   0.73985    -20.773156
   0.75609    -20.773296
   0.77234    -20.773446
   0.78858    -20.773606
   0.80482    -20.773773
   0.82106    -20.773948
   0.83731    -20.774128
   0.85355    -20.774312
   0.86979    -20.774499
   0.88603    -20.774688
   0.88603    -20.774688
   0.90218    -20.774689
   0.91833    -20.774694
   0.93447    -20.774702
   0.95062    -20.774712
   0.96676    -20.774725
   0.98291    -20.774741
   0.99905    -20.774759
   1.01520    -20.774779
   1.03135    -20.774801
   1.04749    -20.774824
   1.06364    -20.774849
   1.07978    -20.774874
   1.09593    -20.774899
   1.11207    -20.774925
   1.12822    -20.774950
   1.14436    -20.774974
   1.16051    -20.774998
   1.17666    -20.775019
   1.19280    -20.775039
   1.20895    -20.775058
   1.22509    -20.775074
   1.24124    -20.775087
   1.25738    -20.775098
   1.27353    -20.775106
   1.28968    -20.775111
   1.30582    -20.775112
   1.30582    -20.775112
   1.32132    -20.774753
   1.33683    -20.774399
   1.35233    -20.774051
   1.36783    -20.773709
   1.38333    -20.773375
   1.39883    -20.773049
   1.41434    -20.772732
   1.42984    -20.772424
   1.44534    -20.772126
   1.46084    -20.771838
   1.47634    -20.771560
   1.49184    -20.771293
   1.50735    -20.771037
   1.52285    -20.770793
   1.53835    -20.770560
   1.55385    -20.770339
   1.56935    -20.770130
   1.58486    -20.769933
   1.60036    -20.769748
   1.61586    -20.769576
   1.63136    -20.769416
   1.64686    -20.769269
   1.66237    -20.769135
   1.67787    -20.769013
   1.69337    -20.768904
   1.70887    -20.768807
   1.72437    -20.768724
   1.73988    -20.768653
   1.75538    -20.768595
   1.77088    -20.768550
   1.78638    -20.768518
   1.80188    -20.768499
   1.81739    -20.768492
   1.81739    -20.768492
   1.83277    -20.768498
   1.84816    -20.768515
   1.86355    -20.768542
   1.87894    -20.768581
   1.89432    -20.768630
   1.90971    -20.768690
   1.92510    -20.768759
   1.94049    -20.768837
   1.95588    -20.768924
   1.97126    -20.769020
   1.98665    -20.769123
   2.00204    -20.769232
   2.01743    -20.769348
   2.03281    -20.769469
   2.04820    -20.769595
   2.06359    -20.769724
   2.07898    -20.769856
   2.09436    -20.769989
   2.10975    -20.770124
   2.12514    -20.770259
   2.14053    -20.770393
   2.15591    -20.770525
   2.17130    -20.770654
   2.18669    -20.770780
   2.20208    -20.770901
   2.21747    -20.771017
   2.23285    -20.771127
   2.24824    -20.771230
   2.26363    -20.771325
   2.27902    -20.771412
   2.29440    -20.771490
   2.30979    -20.771558
   2.32518    -20.771618
   2.34057    -20.771667
   2.35595    -20.771706
   2.37134    -20.771734
   2.38673    -20.771751
   2.40212    -20.771756
   2.40212    -20.771756
   2.41875    -20.771766
   2.43537    -20.771795
   2.45200    -20.771845
   2.46863    -20.771913
   2.48526    -20.772002
   2.50189    -20.772110
   2.51851    -20.772237
   2.53514    -20.772383
   2.55177    -20.772547
   2.56840    -20.772730
   2.58503    -20.772931
   2.60166    -20.773149
   2.61828    -20.773383
   2.61828    -20.773383
   2.63387    -20.773618
   2.64945    -20.773867
   2.66504    -20.774128
   2.68062    -20.774403
   2.69621    -20.774689
   2.71179    -20.774863
   2.72738    -20.774590
   2.74296    -20.774315
   2.75855    -20.774036
   2.77414    -20.773755
   2.78972    -20.773474
   2.80531    -20.773194
   2.82089    -20.772914
   2.83648    -20.772637
   2.85206    -20.772363
   2.86765    -20.772094
   2.88323    -20.771830
   2.89882    -20.771571
   2.91440    -20.771320
   2.92999    -20.771076
   2.94557    -20.770840
   2.96116    -20.770613
   2.97674    -20.770395
   2.99233    -20.770186
   3.00791    -20.769989
   3.02350    -20.769801
   3.03908    -20.769626
   3.05467    -20.769462
   3.07025    -20.769309
   3.08584    -20.769170
   3.10142    -20.769043
   3.11701    -20.768929
   3.13260    -20.768827
   3.14818    -20.768739
   3.16377    -20.768664
   3.17935    -20.768602
   3.19494    -20.768554
   3.21052    -20.768520
   3.22611    -20.768499
   3.24169    -20.768492
   3.24169    -20.772523
   3.25769    -20.772533
   3.27369    -20.772562
   3.28969    -20.772611
   3.30568    -20.772678
   3.32168    -20.772765
   3.33768    -20.772869
   3.35368    -20.772991
   3.36968    -20.773129
   3.38567    -20.773283
   3.40167    -20.773451
   3.41767    -20.773632
   3.43367    -20.773825
   3.44967    -20.774028
   3.46566    -20.774240
   3.48166    -20.774459
   3.49766    -20.774684
   3.51366    -20.774651
   3.52966    -20.774435
   3.52966    -20.774425
   3.54575    -20.774208
   3.56183    -20.773992
   3.57792    -20.773778
   3.59401    -20.773567
   3.61010    -20.773362
   3.62619    -20.773165
   3.64228    -20.772975
   3.65837    -20.772794
   3.67446    -20.772625
   3.69055    -20.772468
   3.70664    -20.772324
   3.72273    -20.772194
   3.73882    -20.772080
   3.75491    -20.771983
   3.77100    -20.771902
   3.78709    -20.771838
   3.80318    -20.771793
   3.81927    -20.771765
   3.83536    -20.771756
 
# Band-Index    4
   3.83536    -20.771756
   3.81927    -20.771765
   3.80318    -20.771793
   3.78709    -20.771838
   3.77100    -20.771902
   3.75491    -20.771983
   3.73882    -20.772080
   3.72273    -20.772194
   3.70664    -20.772324
   3.69055    -20.772468
   3.67446    -20.772625
   3.65837    -20.772794
   3.64228    -20.772975
   3.62619    -20.773165
   3.61010    -20.773362
   3.59401    -20.773567
   3.57792    -20.773778
   3.56183    -20.773992
   3.54575    -20.774208
   3.52966    -20.774425
   3.52966    -20.774435
   3.51366    -20.774651
   3.49766    -20.774684
   3.48166    -20.774459
   3.46566    -20.774240
   3.44967    -20.774028
   3.43367    -20.773825
   3.41767    -20.773632
   3.40167    -20.773451
   3.38567    -20.773283
   3.36968    -20.773129
   3.35368    -20.772991
   3.33768    -20.772869
   3.32168    -20.772765
   3.30568    -20.772678
   3.28969    -20.772611
   3.27369    -20.772562
   3.25769    -20.772533
   3.24169    -20.772523
   3.24169    -20.768492
   3.22611    -20.768499
