#K-Path(1/A) Energy-Level(eV)
# NKPTS & NBANDS: 169 128
# Band-Index    1
   0.00000    -22.162640
   0.01547    -22.162634
   0.03095    -22.162614
   0.04642    -22.162582
   0.06190    -22.162537
   0.07737    -22.162480
   0.09285    -22.162410
   0.10832    -22.162330
   0.12380    -22.162238
   0.13927    -22.162136
   0.15475    -22.162025
   0.17022    -22.161905
   0.18570    -22.161777
   0.20117    -22.161643
   0.21665    -22.161502
   0.23212    -22.161357
   0.24760    -22.161208
   0.26307    -22.161056
   0.27855    -22.160902
   0.29402    -22.160748
   0.30950    -22.160594
   0.32497    -22.160442
   0.34045    -22.160293
   0.35592    -22.160147
   0.37139    -22.160006
   0.38687    -22.159871
   0.40234    -22.159743
   0.41782    -22.159624
   0.43329    -22.159512
   0.44877    -22.159410
   0.46424    -22.159319
   0.47972    -22.159238
   0.49519    -22.159169
   0.51067    -22.159111
   0.52614    -22.159066
   0.54162    -22.159033
   0.55709    -22.159014
   0.57257    -22.159007
   0.57257    -22.159007
   0.58944    -22.159001
   0.60631    -22.158983
   0.62318    -22.158952
   0.64004    -22.158909
   0.65691    -22.158855
   0.67378    -22.158789
   0.69065    -22.158712
   0.70752    -22.158625
   0.72439    -22.158527
   0.74126    -22.158420
   0.75813    -22.158304
   0.77500    -22.158180
   0.77500    -22.158166
   0.79057    -22.158044
   0.80614    -22.157917
   0.82172    -22.157784
   0.83729    -22.157646
   0.85286    -22.157727
   0.86843    -22.157894
   0.88400    -22.158068
   0.89957    -22.158246
   0.91515    -22.158429
   0.93072    -22.158616
   0.94629    -22.158807
   0.96186    -22.159001
   0.97743    -22.159196
   0.99300    -22.159393
   1.00858    -22.159591
   1.02415    -22.159789
   1.03972    -22.159986
   1.05529    -22.160181
   1.07086    -22.160374
   1.08644    -22.160563
   1.10201    -22.160749
   1.11758    -22.160930
   1.13315    -22.161106
   1.14872    -22.161275
   1.16429    -22.161438
   1.17987    -22.161592
   1.19544    -22.161739
   1.21101    -22.161876
   1.22658    -22.162003
   1.24215    -22.162120
   1.25772    -22.162226
   1.27330    -22.162322
   1.28887    -22.162405
   1.30444    -22.162476
   1.32001    -22.162535
   1.33558    -22.162581
   1.35116    -22.162614
   1.36673    -22.162634
   1.38230    -22.162640
   1.38230    -22.162640
   1.39779    -22.162634
   1.41329    -22.162614
   1.42879    -22.162582
   1.44428    -22.162536
   1.45978    -22.162478
   1.47527    -22.162407
   1.49077    -22.162323
   1.50626    -22.162228
   1.52176    -22.162121
   1.53725    -22.162003
   1.55275    -22.161875
   1.56824    -22.161737
   1.58374    -22.161589
   1.59924    -22.161431
   1.61473    -22.161265
   1.63023    -22.161091
   1.64572    -22.160910
   1.66122    -22.160722
   1.67671    -22.160527
   1.69221    -22.160327
   1.70770    -22.160122
   1.72320    -22.159914
   1.73870    -22.159702
   1.75419    -22.159487
   1.76969    -22.159270
   1.78518    -22.159051
   1.80068    -22.158831
   1.81617    -22.158611
   1.83167    -22.158392
   1.84716    -22.158173
   1.86266    -22.157956
   1.87816    -22.157753
   1.87816    -22.157753
   1.89435    -22.157752
   1.91054    -22.157750
   1.92674    -22.157746
   1.94293    -22.157741
   1.95913    -22.157735
   1.97532    -22.157728
   1.99152    -22.157720
   2.00771    -22.157710
   2.02391    -22.157700
   2.04010    -22.157690
   2.05630    -22.157678
   2.07249    -22.157667
   2.08869    -22.157656
   2.10488    -22.157644
   2.12108    -22.157633
   2.13727    -22.157622
   2.15346    -22.157612
   2.16966    -22.157603
   2.18585    -22.157595
   2.20205    -22.157588
   2.21824    -22.157583
   2.23444    -22.157578
   2.25063    -22.157575
   2.26683    -22.157573
   2.28302    -22.157572
   2.28302    -22.157572
   2.29893    -22.157697
   2.31483    -22.157821
   2.33074    -22.157943
   2.34664    -22.158063
   2.36255    -22.158179
   2.37845    -22.158290
   2.39435    -22.158395
   2.41026    -22.158495
   2.42616    -22.158587
   2.44207    -22.158671
   2.45797    -22.158747
   2.47388    -22.158814
   2.48978    -22.158872
   2.50569    -22.158920
   2.52159    -22.158958
   2.53750    -22.158985
   2.55340    -22.159002
   2.56931    -22.159007
 
# Band-Index    2
   2.56931    -22.159007
   2.55340    -22.159002
   2.53750    -22.158985
   2.52159    -22.158958
   2.50569    -22.158920
   2.48978    -22.158872
   2.47388    -22.158814
   2.45797    -22.158747
   2.44207    -22.158671
   2.42616    -22.158587
   2.41026    -22.158495
   2.39435    -22.158395
   2.37845    -22.158290
   2.36255    -22.158179
   2.34664    -22.158063
   2.33074    -22.157943
   2.31483    -22.157821
   2.29893    -22.157697
   2.28302    -22.157572
   2.28302    -22.157572
   2.26683    -22.157573
   2.25063    -22.157575
   2.23444    -22.157578
   2.21824    -22.157582
   2.20205    -22.157588
   2.18585    -22.157595
   2.16966    -22.157603
   2.15346    -22.157612
   2.13727    -22.157622
   2.12108    -22.157633
   2.10488    -22.157644
   2.08869    -22.157655
   2.07249    -22.157667
   2.05630    -22.157678
   2.04010    -22.157690
   2.02391    -22.157700
   2.00771    -22.157710
   1.99152    -22.157720
   1.97532    -22.157728
   1.95913    -22.157735
   1.94293    -22.157741
   1.92674    -22.157746
   1.91054    -22.157750
   1.89435    -22.157752
   1.87816    -22.157753
   1.87816    -22.157753
   1.86266    -22.157956
   1.84716    -22.158173
   1.83167    -22.158392
   1.81617    -22.158611
   1.80068    -22.158831
   1.78518    -22.159051
   1.76969    -22.159269
   1.75419    -22.159487
   1.73870    -22.159702
   1.72320    -22.159913
   1.70770    -22.160122
   1.69221    -22.160327
   1.67671    -22.160527
   1.66122    -22.160721
   1.64572    -22.160910
   1.63023    -22.161091
   1.61473    -22.161265
   1.59924    -22.161431
   1.58374    -22.161589
   1.56824    -22.161737
   1.55275    -22.161875
   1.53725    -22.162003
   1.52176    -22.162121
   1.50626    -22.162228
   1.49077    -22.162323
   1.47527    -22.162406
   1.45978    -22.162477
   1.44428    -22.162536
   1.42879    -22.162581
   1.41329    -22.162614
   1.39779    -22.162634
   1.38230    -22.162640
   1.38230    -22.162640
   1.36673    -22.162634
   1.35116    -22.162614
   1.33558    -22.162581
   1.32001    -22.162535
   1.30444    -22.162476
   1.28887    -22.162405
   1.27330    -22.162322
   1.25772    -22.162226
   1.24215    -22.162120
   1.22658    -22.162003
   1.21101    -22.161876
   1.19544    -22.161738
   1.17987    -22.161592
   1.16429    -22.161438
   1.14872    -22.161275
   1.13315    -22.161106
   1.11758    -22.160930
   1.10201    -22.160749
   1.08644    -22.160563
   1.07086    -22.160374
   1.05529    -22.160181
   1.03972    -22.159986
   1.02415    -22.159789
   1.00858    -22.159591
   0.99300    -22.159393
   0.97743    -22.159196
   0.96186    -22.159000
   0.94629    -22.158807
   0.93072    -22.158616
   0.91515    -22.158429
   0.89957    -22.158246
   0.88400    -22.158067
   0.86843    -22.157894
   0.85286    -22.157727
   0.83729    -22.157646
   0.82172    -22.157784
   0.80614    -22.157917
   0.79057    -22.158044
   0.77500    -22.158166
   0.77500    -22.158179
   0.75813    -22.158304
   0.74126    -22.158420
   0.72439    -22.158527
   0.70752    -22.158624
   0.69065    -22.158712
   0.67378    -22.158789
   0.65691    -22.158855
   0.64004    -22.158909
   0.62318    -22.158952
   0.60631    -22.158983
   0.58944    -22.159001
   0.57257    -22.159007
   0.57257    -22.159007
   0.55709    -22.159014
   0.54162    -22.159033
   0.52614    -22.159066
   0.51067    -22.159111
   0.49519    -22.159169
   0.47972    -22.159238
   0.46424    -22.159319
   0.44877    -22.159410
   0.43329    -22.159512
   0.41782    -22.159623
   0.40234    -22.159743
   0.38687    -22.159871
   0.37139    -22.160006
   0.35592    -22.160147
   0.34045    -22.160292
   0.32497    -22.160442
   0.30950    -22.160594
   0.29402    -22.160748
   0.27855    -22.160902
   0.26307    -22.161055
   0.24760    -22.161208
   0.23212    -22.161357
   0.21665    -22.161502
   0.20117    -22.161643
   0.18570    -22.161777
   0.17022    -22.161905
   0.15475    -22.162025
   0.13927    -22.162136
   0.12380    -22.162238
   0.10832    -22.162330
   0.09285    -22.162410
   0.07737    -22.162480
   0.06190    -22.162537
   0.04642    -22.162582
   0.03095    -22.162614
   0.01547    -22.162634
   0.00000    -22.162640
 
# Band-Index    3
   0.00000    -22.153870
   0.01547    -22.153874
   0.03095    -22.153886
   0.04642    -22.153906
   0.06190    -22.153934
   0.07737    -22.153969
   0.09285    -22.154012
   0.10832    -22.154062
   0.12380    -22.154119
   0.13927    -22.154183
   0.15475    -22.154252
   0.17022    -22.154327
   0.18570    -22.154407
   0.20117    -22.154490
   0.21665    -22.154578
   0.23212    -22.154669
   0.24760    -22.154761
   0.26307    -22.154856
   0.27855    -22.154952
   0.29402    -22.155048
   0.30950    -22.155143
   0.32497    -22.155238
   0.34045    -22.155331
   0.35592    -22.155421
   0.37139    -22.155509
   0.38687    -22.155593
   0.40234    -22.155672
   0.41782    -22.155747
   0.43329    -22.155816
   0.44877    -22.155879
   0.46424    -22.155936
   0.47972    -22.155987
   0.49519    -22.156030
   0.51067    -22.156065
   0.52614    -22.156093
   0.54162    -22.156113
   0.55709    -22.156126
   0.57257    -22.156130
   0.57257    -22.156130
   0.58944    -22.156136
   0.60631    -22.156154
   0.62318    -22.156185
   0.64004    -22.156228
   0.65691    -22.156283
   0.67378    -22.156349
   0.69065    -22.156428
   0.70752    -22.156518
   0.72439    -22.156619
   0.74126    -22.156731
   0.75813    -22.156853
   0.77500    -22.156986
   0.77500    -22.156993
   0.79057    -22.157124
   0.80614    -22.157264
   0.82172    -22.157411
   0.83729    -22.157566
   0.85286    -22.157504
   0.86843    -22.157358
   0.88400    -22.157209
   0.89957    -22.157057
   0.91515    -22.156903
   0.93072    -22.156748
   0.94629    -22.156593
   0.96186    -22.156437
   0.97743    -22.156282
   0.99300    -22.156128
   1.00858    -22.155975
   1.02415    -22.155825
   1.03972    -22.155677
   1.05529    -22.155533
   1.07086    -22.155392
   1.08644    -22.155255
   1.10201    -22.155123
   1.11758    -22.154996
   1.13315    -22.154875
   1.14872    -22.154759
   1.16429    -22.154649
   1.17987    -22.154545
   1.19544    -22.154448
   1.21101    -22.154358
   1.22658    -22.154275
   1.24215    -22.154199
   1.25772    -22.154130
   1.27330    -22.154069
   1.28887    -22.154016
   1.30444    -22.153971
   1.32001    -22.153935
   1.33558    -22.153907
   1.35116    -22.153886
   1.36673    -22.153874
   1.38230    -22.153870
   1.38230    -22.153870
   1.39779    -22.153874
   1.41329    -22.153886
   1.42879    -22.153906
   1.44428    -22.153935
   1.45978    -22.153971
   1.47527    -22.154016
   1.49077    -22.154069
   1.50626    -22.154130
   1.52176    -22.154199
   1.53725    -22.154276
   1.55275    -22.154361
   1.56824    -22.154454
   1.58374    -22.154555
   1.59924    -22.154664
   1.61473    -22.154780
   1.63023    -22.154903
   1.64572    -22.155035
   1.66122    -22.155173
   1.67671    -22.155318
   1.69221    -22.155471
   1.70770    -22.155630
   1.72320    -22.155795
   1.73870    -22.155966
   1.75419    -22.156144
   1.76969    -22.156327
   1.78518    -22.156515
   1.80068    -22.156709
   1.81617    -22.156907
   1.83167    -22.157110
   1.84716    -22.157317
   1.86266    -22.157527
   1.87816    -22.157727
   1.87816    -22.157727
   1.89435    -22.157726
   1.91054    -22.157724
   1.92674    -22.157721
   1.94293    -22.157717
   1.95913    -22.157711
   1.97532    -22.157705
   1.99152    -22.157697
   2.00771    -22.157689
   2.02391    -22.157680
   2.04010    -22.157671
   2.05630    -22.157661
   2.07249    -22.157651
   2.08869    -22.157640
   2.10488    -22.157630
   2.12108    -22.157620
   2.13727    -22.157610
   2.15346    -22.157600
   2.16966    -22.157592
   2.18585    -22.157584
   2.20205    -22.157577
   2.21824    -22.157571
   2.23444    -22.157567
   2.25063    -22.157563
   2.26683    -22.157561
   2.28302    -22.157561
   2.28302    -22.157561
   2.29893    -22.157436
   2.31483    -22.157313
   2.33074    -22.157191
   2.34664    -22.157072
   2.36255    -22.156956
   2.37845    -22.156846
   2.39435    -22.156740
   2.41026    -22.156641
   2.42616    -22.156549
   2.44207    -22.156464
   2.45797    -22.156388
   2.47388    -22.156321
   2.48978    -22.156264
   2.50569    -22.156216
   2.52159    -22.156179
   2.53750    -22.156152
   2.55340    -22.156135
   2.56931    -22.156130
 
# Band-Index    4
   2.56931    -22.156130
   2.55340    -22.156135
   2.53750    -22.156152
   2.52159    -22.156179
   2.50569    -22.156216
   2.48978    -22.156264
   2.47388    -22.156321
   2.45797    -22.156388
   2.44207    -22.156464
   2.42616    -22.156549
   2.41026    -22.156641
   2.39435    -22.156740
   2.37845    -22.156845
   2.36255    -22.156956
   2.34664    -22.157071
   2.33074    -22.157190
   2.31483    -22.157312
   2.29893    -22.157436
   2.28302    -22.157561
   2.28302    -22.157561
   2.26683    -22.157561
   2.25063    -22.157563
   2.23444    -22.157566
   2.21824    -22.157571
   2.20205    -22.157577
   2.18585    -22.157584
   2.16966    -22.157592
   2.15346    -22.157600
   2.13727    -22.157610
   2.12108    -22.157620
   2.10488    -22.157630
   2.08869    -22.157640
   2.07249    -22.157651
   2.05630    -22.157661
   2.04010    -22.157671
   2.02391    -22.157680
   2.00771    -22.157689
   1.99152    -22.157697
   1.97532    -22.157705
   1.95913    -22.157711
   1.94293    -22.157716
   1.92674    -22.157721
   1.91054    -22.157724
   1.89435    -22.157726
   1.87816    -22.157727
   1.87816    -22.157727
   1.86266    -22.157527
   1.84716    -22.157317
   1.83167    -22.157110
   1.81617    -22.156907
   1.80068    -22.156709
   1.78518    -22.156515
   1.76969    -22.156327
   1.75419    -22.156143
   1.73870    -22.155966
   1.72320    -22.155795
   1.70770    -22.155630
   1.69221    -22.155471
   1.67671    -22.155318
   1.66122    -22.155173
   1.64572    -22.155034
   1.63023    -22.154903
   1.61473    -22.154780
   1.59924    -22.154663
   1.58374    -22.154555
   1.56824    -22.154454
   1.55275    -22.154361
   1.53725    -22.154276
   1.52176    -22.154199
   1.50626    -22.154130
   1.49077    -22.154069
   1.47527    -22.154016
   1.45978    -22.153971
   1.44428    -22.153934
   1.42879    -22.153906
   1.41329    -22.153886
   1.39779    -22.153874
   1.38230    -22.153870
   1.38230    -22.153870
   1.36673    -22.153874
   1.35116    -22.153886
   1.33558    -22.153907
   1.32001    -22.153935
   1.30444    -22.153971
   1.28887    -22.154016
   1.27330    -22.154069
   1.25772    -22.154130
   1.24215    -22.154199
   1.22658    -22.154275
   1.21101    -22.154358
   1.19544    -22.154448
   1.17987    -22.154545
   1.16429    -22.154649
   1.14872    -22.154759
   1.13315    -22.154874
   1.11758    -22.154996
   1.10201    -22.155123
   1.08644    -22.155255
   1.07086    -22.155392
   1.05529    -22.155533
   1.03972    -22.155677
   1.02415    -22.155825
   1.00858    -22.155975
   0.99300    -22.156128
   0.97743    -22.156282
   0.96186    -22.156437
   0.94629    -22.156592
   0.93072    -22.156748
   0.91515    -22.156903
   0.89957    -22.157057
   0.88400    -22.157209
   0.86843    -22.157358
   0.85286    -22.157504
   0.83729    -22.157566
   0.82172    -22.157411
   0.80614    -22.157264
   0.79057    -22.157124
   0.77500    -22.156993
   0.77500    -22.156986
   0.75813    -22.156853
   0.74126    -22.156731
   0.72439    -22.156619
   0.70752    -22.156518
   0.69065    -22.156428
   0.67378    -22.156349
   0.65691    -22.156283
   0.64004    -22.156228
   0.62318    -22.156185
   0.60631    -22.156154
   0.58944    -22.156136
   0.57257    -22.156130
   0.57257    -22.156130
   0.55709    -22.156126
   0.54162    -22.156113
   0.52614    -22.156093
   0.51067    -22.156065
   0.49519    -22.156029
   0.47972    -22.155986
   0.46424    -22.155936
   0.44877    -22.155879
   0.43329    -22.155816
   0.41782    -22.155747
   0.40234    -22.155672
   0.38687    -22.155593
   0.37139    -22.155509
   0.35592    -22.155421
   0.34045    -22.155331
   0.32497    -22.155238
   0.30950    -22.155143
   0.29402    -22.155048
   0.27855    -22.154952
   0.26307    -22.154856
   0.24760    -22.154761
   0.23212    -22.154669
   0.21665    -22.154578
   0.20117    -22.154490
   0.18570    -22.154406
   0.17022    -22.154327
   0.15475    -22.154252
   0.13927    -22.154183
   0.12380    -22.154119
   0.10832    -22.154062
   0.09285    -22.154012
   0.07737    -22.153969
   0.06190    -22.153934
   0.04642    -22.153906
   0.03095    -22.153886
   0.01547    -22.153874
   0.00000    -22.153870
 
# Band-Index    5
   0.00000    -16.829400
   0.01547    -16.829312
   0.03095    -16.829040
   0.04642    -16.828587
   0.06190    -16.827960
   0.07737    -16.827167
   0.09285    -16.826213
   0.10832    -16.825107
   0.12380    -16.823870
   0.13927    -16.822512
   0.15475    -16.821038
   0.17022    -16.819486
   0.18570    -16.817862
   0.20117    -16.816186
   0.21665    -16.814478
   0.23212    -16.812748
   0.24760    -16.811016
   0.26307    -16.809303
   0.27855    -16.807619
   0.29402    -16.805980
   0.30950    -16.804400
   0.32497    -16.802890
   0.34045    -16.801457
   0.35592    -16.800116
   0.37139    -16.798867
   0.38687    -16.797718
   0.40234    -16.796663
   0.41782    -16.795716
   0.43329    -16.794873
   0.44877    -16.794126
   0.46424    -16.793477
   0.47972    -16.792921
   0.49519    -16.792458
   0.51067    -16.792084
   0.52614    -16.791796
   0.54162    -16.791591
   0.55709    -16.791470
   0.57257    -16.791430
   0.57257    -16.791430
   0.58944    -16.791396
   0.60631    -16.791299
   0.62318    -16.791140
   0.64004    -16.790921
   0.65691    -16.790656
   0.67378    -16.790349
   0.69065    -16.790022
   0.70752    -16.789674
   0.72439    -16.789324
   0.74126    -16.788991
   0.75813    -16.788685
   0.77500    -16.788429
   0.77500    -16.789183
   0.79057    -16.788878
   0.80614    -16.788639
   0.82172    -16.788480
   0.83729    -16.788415
   0.85286    -16.788460
   0.86843    -16.788619
   0.88400    -16.788908
   0.89957    -16.789324
   0.91515    -16.789880
   0.93072    -16.790578
   0.94629    -16.791421
   0.96186    -16.792402
   0.97743    -16.793525
   0.99300    -16.794790
   1.00858    -16.796175
   1.02415    -16.797677
   1.03972    -16.799283
   1.05529    -16.800981
   1.07086    -16.802755
   1.08644    -16.804589
   1.10201    -16.806471
   1.11758    -16.808377
   1.13315    -16.810294
   1.14872    -16.812202
   1.16429    -16.814083
   1.17987    -16.815921
   1.19544    -16.817699
   1.21101    -16.819401
   1.22658    -16.821010
   1.24215    -16.822512
   1.25772    -16.823892
   1.27330    -16.825138
   1.28887    -16.826239
   1.30444    -16.827194
   1.32001    -16.827982
   1.33558    -16.828601
   1.35116    -16.829047
   1.36673    -16.829314
   1.38230    -16.829400
   1.38230    -16.829400
   1.39779    -16.829316
   1.41329    -16.829055
   1.42879    -16.828618
   1.44428    -16.828009
   1.45978    -16.827232
   1.47527    -16.826298
   1.49077    -16.825214
   1.50626    -16.823976
   1.52176    -16.822603
   1.53725    -16.821106
   1.55275    -16.819494
   1.56824    -16.817784
   1.58374    -16.815989
   1.59924    -16.814131
   1.61473    -16.812217
   1.63023    -16.810268
   1.64572    -16.808304
   1.66122    -16.806341
   1.67671    -16.804398
   1.69221    -16.802492
   1.70770    -16.800647
   1.72320    -16.798884
   1.73870    -16.797219
   1.75419    -16.795673
   1.76969    -16.794260
