#K-Path(1/A) Energy-Level(eV)
# NKPTS & NBANDS: 168 112
# Band-Index    1
   0.00000    -22.283035
   0.01545    -22.283029
   0.03089    -22.283010
   0.04634    -22.282978
   0.06179    -22.282934
   0.07723    -22.282878
   0.09268    -22.282811
   0.10812    -22.282732
   0.12357    -22.282642
   0.13902    -22.282543
   0.15446    -22.282434
   0.16991    -22.282317
   0.18536    -22.282192
   0.20080    -22.282061
   0.21625    -22.281923
   0.23169    -22.281781
   0.24714    -22.281636
   0.26259    -22.281487
   0.27803    -22.281337
   0.29348    -22.281186
   0.30893    -22.281036
   0.32437    -22.280888
   0.33982    -22.280742
   0.35527    -22.280600
   0.37071    -22.280462
   0.38616    -22.280330
   0.40160    -22.280205
   0.41705    -22.280088
   0.43250    -22.279980
   0.44794    -22.279880
   0.46339    -22.279791
   0.47884    -22.279712
   0.49428    -22.279644
   0.50973    -22.279588
   0.52518    -22.279544
   0.54062    -22.279512
   0.55607    -22.279493
   0.57151    -22.279487
   0.57151    -22.279487
   0.58835    -22.279481
   0.60519    -22.279462
   0.62203    -22.279432
   0.63887    -22.279390
   0.65571    -22.279336
   0.67254    -22.279271
   0.68938    -22.279195
   0.70622    -22.279109
   0.72306    -22.279013
   0.73990    -22.278908
   0.75674    -22.278793
   0.77358    -22.278671
   0.77358    -22.278636
   0.78912    -22.278518
   0.80466    -22.278393
   0.82020    -22.278263
   0.83575    -22.278128
   0.85129    -22.278229
   0.86683    -22.278393
   0.88238    -22.278563
   0.89792    -22.278738
   0.91346    -22.278918
   0.92901    -22.279101
   0.94455    -22.279289
   0.96009    -22.279478
   0.97564    -22.279670
   0.99118    -22.279863
   1.00672    -22.280057
   1.02227    -22.280251
   1.03781    -22.280443
   1.05335    -22.280634
   1.06889    -22.280823
   1.08444    -22.281008
   1.09998    -22.281190
   1.11552    -22.281367
   1.13107    -22.281538
   1.14661    -22.281704
   1.16215    -22.281862
   1.17770    -22.282013
   1.19324    -22.282156
   1.20878    -22.282289
   1.22433    -22.282414
   1.23987    -22.282528
   1.25541    -22.282632
   1.27096    -22.282724
   1.28650    -22.282806
   1.30204    -22.282875
   1.31758    -22.282933
   1.33313    -22.282978
   1.34867    -22.283010
   1.36421    -22.283029
   1.37976    -22.283035
   1.37976    -22.283035
   1.39572    -22.283029
   1.41169    -22.283008
   1.42766    -22.282974
   1.44362    -22.282927
   1.45959    -22.282866
   1.47555    -22.282792
   1.49152    -22.282705
   1.50749    -22.282606
   1.52345    -22.282495
   1.53942    -22.282373
   1.55538    -22.282240
   1.57135    -22.282096
   1.58732    -22.281943
   1.60328    -22.281780
   1.61925    -22.281608
   1.63521    -22.281429
   1.65118    -22.281241
   1.66715    -22.281047
   1.68311    -22.280847
   1.69908    -22.280642
   1.71504    -22.280432
   1.73101    -22.280218
   1.74698    -22.280001
   1.76294    -22.279782
   1.77891    -22.279561
   1.79487    -22.279339
   1.81084    -22.279116
   1.82681    -22.278893
   1.84277    -22.278672
   1.85874    -22.278452
   1.87470    -22.278240
   1.87470    -22.278240
   1.89087    -22.278239
   1.90703    -22.278237
   1.92320    -22.278234
   1.93936    -22.278230
   1.95553    -22.278224
   1.97169    -22.278218
   1.98786    -22.278210
   2.00402    -22.278202
   2.02019    -22.278193
   2.03635    -22.278184
   2.05252    -22.278174
   2.06868    -22.278163
   2.08485    -22.278153
   2.10101    -22.278142
   2.11718    -22.278132
   2.13334    -22.278122
   2.14951    -22.278113
   2.16567    -22.278105
   2.18184    -22.278097
   2.19800    -22.278091
   2.21417    -22.278085
   2.23033    -22.278081
   2.24650    -22.278078
   2.26266    -22.278076
   2.27882    -22.278075
   2.27882    -22.278075
   2.29470    -22.278198
   2.31058    -22.278320
   2.32645    -22.278440
   2.34233    -22.278558
   2.35820    -22.278672
   2.37408    -22.278781
   2.38995    -22.278885
   2.40583    -22.278982
   2.42170    -22.279073
   2.43758    -22.279156
   2.45345    -22.279231
   2.46933    -22.279297
   2.48520    -22.279354
   2.50108    -22.279401
   2.51696    -22.279438
   2.53283    -22.279465
   2.54871    -22.279481
   2.56458    -22.279487
 
# Band-Index    2
   2.56458    -22.279487
   2.54871    -22.279481
   2.53283    -22.279465
   2.51696    -22.279438
   2.50108    -22.279401
   2.48520    -22.279354
   2.46933    -22.279297
   2.45345    -22.279231
   2.43758    -22.279156
   2.42170    -22.279073
   2.40583    -22.278982
   2.38995    -22.278885
   2.37408    -22.278781
   2.35820    -22.278671
   2.34233    -22.278558
   2.32645    -22.278440
   2.31058    -22.278320
   2.29470    -22.278198
   2.27882    -22.278075
   2.27882    -22.278075
   2.26266    -22.278076
   2.24650    -22.278078
   2.23033    -22.278081
   2.21417    -22.278085
   2.19800    -22.278091
   2.18184    -22.278097
   2.16567    -22.278105
   2.14951    -22.278113
   2.13334    -22.278122
   2.11718    -22.278132
   2.10101    -22.278142
   2.08485    -22.278153
   2.06868    -22.278163
   2.05252    -22.278173
   2.03635    -22.278184
   2.02019    -22.278193
   2.00402    -22.278202
   1.98786    -22.278210
   1.97169    -22.278218
   1.95553    -22.278224
   1.93936    -22.278230
   1.92320    -22.278234
   1.90703    -22.278237
   1.89087    -22.278239
   1.87470    -22.278240
   1.87470    -22.278240
   1.85874    -22.278452
   1.84277    -22.278672
   1.82681    -22.278893
   1.81084    -22.279116
   1.79487    -22.279339
   1.77891    -22.279561
   1.76294    -22.279782
   1.74698    -22.280001
   1.73101    -22.280218
   1.71504    -22.280432
   1.69908    -22.280641
   1.68311    -22.280847
   1.66715    -22.281047
   1.65118    -22.281241
   1.63521    -22.281428
   1.61925    -22.281608
   1.60328    -22.281780
   1.58732    -22.281943
   1.57135    -22.282096
   1.55538    -22.282240
   1.53942    -22.282373
   1.52345    -22.282495
   1.50749    -22.282606
   1.49152    -22.282705
   1.47555    -22.282792
   1.45959    -22.282866
   1.44362    -22.282926
   1.42766    -22.282974
   1.41169    -22.283008
   1.39572    -22.283028
   1.37976    -22.283035
   1.37976    -22.283035
   1.36421    -22.283029
   1.34867    -22.283010
   1.33313    -22.282978
   1.31758    -22.282933
   1.30204    -22.282875
   1.28650    -22.282806
   1.27096    -22.282724
   1.25541    -22.282632
   1.23987    -22.282528
   1.22433    -22.282414
   1.20878    -22.282289
   1.19324    -22.282156
   1.17770    -22.282013
   1.16215    -22.281862
   1.14661    -22.281704
   1.13107    -22.281538
   1.11552    -22.281367
   1.09998    -22.281190
   1.08444    -22.281008
   1.06889    -22.280823
   1.05335    -22.280634
   1.03781    -22.280443
   1.02227    -22.280250
   1.00672    -22.280057
   0.99118    -22.279863
   0.97564    -22.279670
   0.96009    -22.279478
   0.94455    -22.279289
   0.92901    -22.279101
   0.91346    -22.278918
   0.89792    -22.278738
   0.88238    -22.278563
   0.86683    -22.278393
   0.85129    -22.278228
   0.83575    -22.278128
   0.82020    -22.278263
   0.80466    -22.278393
   0.78912    -22.278518
   0.77358    -22.278636
   0.77358    -22.278671
   0.75674    -22.278793
   0.73990    -22.278908
   0.72306    -22.279013
   0.70622    -22.279109
   0.68938    -22.279195
   0.67254    -22.279271
   0.65571    -22.279336
   0.63887    -22.279390
   0.62203    -22.279432
   0.60519    -22.279462
   0.58835    -22.279481
   0.57151    -22.279487
   0.57151    -22.279487
   0.55607    -22.279493
   0.54062    -22.279512
   0.52518    -22.279544
   0.50973    -22.279588
   0.49428    -22.279644
   0.47884    -22.279712
   0.46339    -22.279791
   0.44794    -22.279880
   0.43250    -22.279980
   0.41705    -22.280088
   0.40160    -22.280205
   0.38616    -22.280330
   0.37071    -22.280462
   0.35527    -22.280600
   0.33982    -22.280742
   0.32437    -22.280888
   0.30893    -22.281036
   0.29348    -22.281186
   0.27803    -22.281337
   0.26259    -22.281487
   0.24714    -22.281636
   0.23169    -22.281781
   0.21625    -22.281923
   0.20080    -22.282061
   0.18536    -22.282192
   0.16991    -22.282317
   0.15446    -22.282434
   0.13902    -22.282543
   0.12357    -22.282642
   0.10812    -22.282732
   0.09268    -22.282811
   0.07723    -22.282878
   0.06179    -22.282934
   0.04634    -22.282978
   0.03089    -22.283010
   0.01545    -22.283029
   0.00000    -22.283035
 
# Band-Index    3
   0.00000    -22.274440
   0.01545    -22.274444
   0.03089    -22.274455
   0.04634    -22.274475
   0.06179    -22.274502
   0.07723    -22.274536
   0.09268    -22.274578
   0.10812    -22.274627
   0.12357    -22.274683
   0.13902    -22.274745
   0.15446    -22.274813
   0.16991    -22.274886
   0.18536    -22.274964
   0.20080    -22.275046
   0.21625    -22.275131
   0.23169    -22.275220
   0.24714    -22.275310
   0.26259    -22.275403
   0.27803    -22.275496
   0.29348    -22.275590
   0.30893    -22.275683
   0.32437    -22.275776
   0.33982    -22.275866
   0.35527    -22.275955
   0.37071    -22.276040
   0.38616    -22.276122
   0.40160    -22.276200
   0.41705    -22.276273
   0.43250    -22.276340
   0.44794    -22.276402
   0.46339    -22.276458
   0.47884    -22.276507
   0.49428    -22.276549
   0.50973    -22.276584
   0.52518    -22.276611
   0.54062    -22.276631
   0.55607    -22.276643
   0.57151    -22.276647
   0.57151    -22.276647
   0.58835    -22.276653
   0.60519    -22.276671
   0.62203    -22.276701
   0.63887    -22.276744
   0.65571    -22.276798
   0.67254    -22.276863
   0.68938    -22.276941
   0.70622    -22.277029
   0.72306    -22.277129
   0.73990    -22.277239
   0.75674    -22.277359
   0.77358    -22.277490
   0.77358    -22.277506
   0.78912    -22.277636
   0.80466    -22.277773
   0.82020    -22.277918
   0.83575    -22.278070
   0.85129    -22.277989
   0.86683    -22.277846
   0.88238    -22.277701
   0.89792    -22.277552
   0.91346    -22.277402
   0.92901    -22.277250
   0.94455    -22.277098
   0.96009    -22.276946
   0.97564    -22.276795
   0.99118    -22.276644
   1.00672    -22.276495
   1.02227    -22.276348
   1.03781    -22.276204
   1.05335    -22.276063
   1.06889    -22.275925
   1.08444    -22.275792
   1.09998    -22.275663
   1.11552    -22.275539
   1.13107    -22.275420
   1.14661    -22.275307
   1.16215    -22.275200
   1.17770    -22.275099
   1.19324    -22.275004
   1.20878    -22.274916
   1.22433    -22.274835
   1.23987    -22.274760
   1.25541    -22.274693
   1.27096    -22.274634
   1.28650    -22.274582
   1.30204    -22.274539
   1.31758    -22.274503
   1.33313    -22.274475
   1.34867    -22.274456
   1.36421    -22.274444
   1.37976    -22.274440
   1.37976    -22.274440
   1.39572    -22.274444
   1.41169    -22.274457
   1.42766    -22.274478
   1.44362    -22.274507
   1.45959    -22.274545
   1.47555    -22.274591
   1.49152    -22.274647
   1.50749    -22.274710
   1.52345    -22.274782
   1.53942    -22.274863
   1.55538    -22.274951
   1.57135    -22.275048
   1.58732    -22.275153
   1.60328    -22.275266
   1.61925    -22.275387
   1.63521    -22.275516
   1.65118    -22.275653
   1.66715    -22.275797
   1.68311    -22.275948
   1.69908    -22.276107
   1.71504    -22.276272
   1.73101    -22.276444
   1.74698    -22.276621
   1.76294    -22.276805
   1.77891    -22.276995
   1.79487    -22.277191
   1.81084    -22.277391
   1.82681    -22.277596
   1.84277    -22.277805
   1.85874    -22.278017
   1.87470    -22.278227
   1.87470    -22.278227
   1.89087    -22.278226
   1.90703    -22.278224
   1.92320    -22.278220
   1.93936    -22.278215
   1.95553    -22.278209
   1.97169    -22.278202
   1.98786    -22.278194
   2.00402    -22.278184
   2.02019    -22.278175
   2.03635    -22.278164
   2.05252    -22.278153
   2.06868    -22.278142
   2.08485    -22.278130
   2.10101    -22.278119
   2.11718    -22.278108
   2.13334    -22.278097
   2.14951    -22.278087
   2.16567    -22.278078
   2.18184    -22.278070
   2.19800    -22.278062
   2.21417    -22.278056
   2.23033    -22.278052
   2.24650    -22.278048
   2.26266    -22.278046
   2.27882    -22.278046
   2.27882    -22.278046
   2.29470    -22.277924
   2.31058    -22.277803
   2.32645    -22.277684
   2.34233    -22.277567
   2.35820    -22.277455
   2.37408    -22.277347
   2.38995    -22.277243
   2.40583    -22.277146
   2.42170    -22.277056
   2.43758    -22.276974
   2.45345    -22.276900
   2.46933    -22.276834
   2.48520    -22.276778
   2.50108    -22.276731
   2.51696    -22.276695
   2.53283    -22.276668
   2.54871    -22.276652
   2.56458    -22.276647
 
# Band-Index    4
   2.56458    -22.276647
   2.54871    -22.276652
   2.53283    -22.276668
   2.51696    -22.276695
   2.50108    -22.276731
   2.48520    -22.276778
   2.46933    -22.276834
   2.45345    -22.276900
   2.43758    -22.276974
   2.42170    -22.277056
   2.40583    -22.277146
   2.38995    -22.277243
   2.37408    -22.277346
   2.35820    -22.277455
   2.34233    -22.277567
   2.32645    -22.277684
   2.31058    -22.277803
   2.29470    -22.277924
   2.27882    -22.278046
   2.27882    -22.278046
   2.26266    -22.278046
   2.24650    -22.278048
   2.23033    -22.278052
   2.21417    -22.278056
   2.19800    -22.278062
   2.18184    -22.278070
   2.16567    -22.278078
   2.14951    -22.278087
   2.13334    -22.278097
   2.11718    -22.278108
   2.10101    -22.278119
   2.08485    -22.278130
   2.06868    -22.278142
   2.05252    -22.278153
   2.03635    -22.278164
   2.02019    -22.278175
   2.00402    -22.278184
   1.98786    -22.278194
   1.97169    -22.278202
   1.95553    -22.278209
   1.93936    -22.278215
   1.92320    -22.278220
   1.90703    -22.278224
   1.89087    -22.278226
   1.87470    -22.278227
   1.87470    -22.278227
   1.85874    -22.278017
   1.84277    -22.277805
   1.82681    -22.277596
   1.81084    -22.277391
   1.79487    -22.277191
   1.77891    -22.276995
   1.76294    -22.276805
   1.74698    -22.276621
   1.73101    -22.276443
   1.71504    -22.276272
   1.69908    -22.276107
   1.68311    -22.275948
   1.66715    -22.275797
   1.65118    -22.275653
   1.63521    -22.275516
   1.61925    -22.275387
   1.60328    -22.275266
   1.58732    -22.275153
   1.57135    -22.275048
   1.55538    -22.274951
   1.53942    -22.274863
   1.52345    -22.274782
   1.50749    -22.274710
   1.49152    -22.274647
   1.47555    -22.274591
   1.45959    -22.274545
   1.44362    -22.274507
   1.42766    -22.274477
   1.41169    -22.274456
   1.39572    -22.274444
   1.37976    -22.274440
   1.37976    -22.274440
   1.36421    -22.274444
   1.34867    -22.274456
   1.33313    -22.274475
   1.31758    -22.274503
   1.30204    -22.274539
   1.28650    -22.274582
   1.27096    -22.274634
   1.25541    -22.274693
   1.23987    -22.274760
   1.22433    -22.274834
   1.20878    -22.274916
   1.19324    -22.275004
   1.17770    -22.275099
   1.16215    -22.275200
   1.14661    -22.275307
   1.13107    -22.275420
   1.11552    -22.275539
   1.09998    -22.275663
   1.08444    -22.275792
   1.06889    -22.275925
   1.05335    -22.276063
   1.03781    -22.276204
   1.02227    -22.276348
   1.00672    -22.276495
   0.99118    -22.276644
   0.97564    -22.276794
   0.96009    -22.276946
   0.94455    -22.277098
   0.92901    -22.277250
   0.91346    -22.277402
   0.89792    -22.277552
   0.88238    -22.277701
   0.86683    -22.277846
   0.85129    -22.277989
   0.83575    -22.278070
   0.82020    -22.277918
   0.80466    -22.277773
   0.78912    -22.277636
   0.77358    -22.277506
   0.77358    -22.277490
   0.75674    -22.277359
   0.73990    -22.277239
   0.72306    -22.277128
   0.70622    -22.277029
   0.68938    -22.276941
   0.67254    -22.276863
   0.65571    -22.276798
   0.63887    -22.276743
   0.62203    -22.276701
   0.60519    -22.276671
   0.58835    -22.276653
   0.57151    -22.276647
   0.57151    -22.276647
   0.55607    -22.276643
   0.54062    -22.276631
   0.52518    -22.276611
   0.50973    -22.276584
   0.49428    -22.276549
   0.47884    -22.276507
   0.46339    -22.276458
   0.44794    -22.276402
   0.43250    -22.276340
   0.41705    -22.276273
   0.40160    -22.276200
   0.38616    -22.276122
   0.37071    -22.276040
   0.35527    -22.275955
   0.33982    -22.275866
   0.32437    -22.275775
   0.30893    -22.275683
   0.29348    -22.275590
   0.27803    -22.275496
   0.26259    -22.275403
   0.24714    -22.275310
   0.23169    -22.275220
   0.21625    -22.275131
   0.20080    -22.275046
   0.18536    -22.274964
   0.16991    -22.274886
   0.15446    -22.274813
   0.13902    -22.274745
   0.12357    -22.274683
   0.10812    -22.274627
   0.09268    -22.274578
   0.07723    -22.274536
   0.06179    -22.274502
   0.04634    -22.274475
   0.03089    -22.274455
   0.01545    -22.274444
   0.00000    -22.274440
 
# Band-Index    5
   0.00000    -16.674846
   0.01545    -16.674702
   0.03089    -16.674268
   0.04634    -16.673552
   0.06179    -16.672555
   0.07723    -16.671284
   0.09268    -16.669750
   0.10812    -16.667963
   0.12357    -16.665942
   0.13902    -16.663699
   0.15446    -16.661256
   0.16991    -16.658633
   0.18536    -16.655849
   0.20080    -16.652933
   0.21625    -16.649907
   0.23169    -16.646793
   0.24714    -16.643621
   0.26259    -16.640417
   0.27803    -16.637207
   0.29348    -16.634015
   0.30893    -16.630871
   0.32437    -16.627802
   0.33982    -16.624828
   0.35527    -16.621972
   0.37071    -16.619253
   0.38616    -16.616690
   0.40160    -16.614295
   0.41705    -16.612089
   0.43250    -16.610074
   0.44794    -16.608256
   0.46339    -16.606646
   0.47884    -16.605246
   0.49428    -16.604060
   0.50973    -16.603090
   0.52518    -16.602333
   0.54062    -16.601790
   0.55607    -16.601465
   0.57151    -16.601356
   0.57151    -16.601356
   0.58835    -16.601314
   0.60519    -16.601188
   0.62203    -16.600980
   0.63887    -16.600704
   0.65571    -16.600369
   0.67254    -16.599994
   0.68938    -16.599597
   0.70622    -16.599201
   0.72306    -16.598834
   0.73990    -16.598522
   0.75674    -16.598297
   0.77358    -16.598182
   0.77358    -16.604848
   0.78912    -16.603983
   0.80466    -16.603240
   0.82020    -16.602658
   0.83575    -16.602261
   0.85129    -16.602088
   0.86683    -16.602163
   0.88238    -16.602507
   0.89792    -16.603136
   0.91346    -16.604067
   0.92901    -16.605302
   0.94455    -16.606840
   0.96009    -16.608678
   0.97564    -16.610808
   0.99118    -16.613204
   1.00672    -16.615846
   1.02227    -16.618705
   1.03781    -16.621754
   1.05335    -16.624956
   1.06889    -16.628281
   1.08444    -16.631689
   1.09998    -16.635149
   1.11552    -16.638628
   1.13107    -16.642086
   1.14661    -16.645497
   1.16215    -16.648829
   1.17770    -16.652052
   1.19324    -16.655142
   1.20878    -16.658073
   1.22433    -16.660822
   1.23987    -16.663370
   1.25541    -16.665698
   1.27096    -16.667789
   1.28650    -16.669630
   1.30204    -16.671205
   1.31758    -16.672506
   1.33313    -16.673525
   1.34867    -16.674257
   1.36421    -16.674699
   1.37976    -16.674846
   1.37976    -16.674846
   1.39572    -16.674702
   1.41169    -16.674266
   1.42766    -16.673548
   1.44362    -16.672544
   1.45959    -16.671261
   1.47555    -16.669702
   1.49152    -16.667883
   1.50749    -16.665814
   1.52345    -16.663507
   1.53942    -16.660976
   1.55538    -16.658240
   1.57135    -16.655319
   1.58732    -16.652235
   1.60328    -16.649008
   1.61925    -16.645670
   1.63521    -16.642246
   1.65118    -16.638766
   1.66715    -16.635267
   1.68311    -16.631785
   1.69908    -16.628360
   1.71504    -16.625030
   1.73101    -16.621833
   1.74698    -16.618821
   1.76294    -16.616035
   1.77891    -16.613515
   1.79487    -16.611308
   1.81084    -16.609445
   1.82681    -16.607955
   1.84277    -16.606872
