#K-Path(1/A)         Spin-Up(eV)   Spin-down(eV)
# NKPTS & NBANDS: 250 128
# Band-Index    1
   0.00000    -20.655234    -20.655234
   0.01561    -20.655226    -20.655226
   0.03123    -20.655198    -20.655198
   0.04684    -20.655153    -20.655152
   0.06246    -20.655091    -20.655090
   0.07807    -20.655009    -20.655009
   0.09369    -20.654913    -20.654913
   0.10930    -20.654801    -20.654801
   0.12492    -20.654672    -20.654672
   0.14053    -20.654530    -20.654530
   0.15615    -20.654376    -20.654376
   0.17176    -20.654210    -20.654210
   0.18738    -20.654032    -20.654032
   0.20299    -20.653846    -20.653846
   0.21861    -20.653652    -20.653652
   0.23422    -20.653452    -20.653452
   0.24984    -20.653247    -20.653247
   0.26545    -20.653039    -20.653039
   0.28106    -20.652830    -20.652830
   0.29668    -20.652620    -20.652620
   0.31229    -20.652411    -20.652411
   0.32791    -20.652206    -20.652206
   0.34352    -20.652006    -20.652006
   0.35914    -20.651812    -20.651812
   0.37475    -20.651624    -20.651624
   0.39037    -20.651448    -20.651448
   0.40598    -20.651280    -20.651280
   0.42160    -20.651125    -20.651125
   0.43721    -20.650982    -20.650982
   0.45283    -20.650855    -20.650855
   0.46844    -20.650742    -20.650742
   0.48406    -20.650644    -20.650644
   0.49967    -20.650563    -20.650563
   0.51529    -20.650500    -20.650500
   0.53090    -20.650453    -20.650453
   0.54651    -20.650425    -20.650425
   0.56213    -20.650416    -20.650416
   0.56213    -20.650416    -20.650416
   0.57819    -20.650404    -20.650404
   0.59425    -20.650365    -20.650365
   0.61031    -20.650301    -20.650301
   0.62637    -20.650211    -20.650211
   0.64243    -20.650098    -20.650096
   0.65849    -20.649958    -20.649958
   0.67455    -20.649797    -20.649797
   0.69061    -20.649614    -20.649614
   0.70667    -20.649411    -20.649409
   0.72273    -20.649186    -20.649186
   0.73879    -20.648945    -20.648945
   0.75485    -20.648690    -20.648690
   0.77091    -20.648418    -20.648418
   0.78697    -20.648134    -20.648134
   0.80303    -20.647841    -20.647841
   0.81909    -20.647539    -20.647539
   0.83515    -20.647230    -20.647230
   0.85121    -20.646917    -20.646917
   0.86727    -20.646602    -20.646602
   0.86727    -20.646602    -20.646602
   0.88323    -20.646600    -20.646599
   0.89919    -20.646591    -20.646591
   0.91514    -20.646580    -20.646580
   0.93110    -20.646563    -20.646563
   0.94706    -20.646541    -20.646541
   0.96301    -20.646515    -20.646515
   0.97897    -20.646484    -20.646484
   0.99493    -20.646447    -20.646447
   1.01088    -20.646406    -20.646406
   1.02684    -20.646358    -20.646358
   1.04279    -20.646307    -20.646307
   1.05875    -20.646251    -20.646251
   1.07471    -20.646189    -20.646189
   1.09066    -20.646121    -20.646121
   1.10662    -20.646048    -20.646048
   1.12258    -20.645972    -20.645972
   1.13853    -20.645888    -20.645888
   1.15449    -20.645801    -20.645800
   1.17045    -20.645708    -20.645708
   1.18640    -20.645612    -20.645612
   1.20236    -20.645511    -20.645510
   1.21832    -20.645404    -20.645404
   1.23427    -20.645294    -20.645294
   1.25023    -20.645182    -20.645182
   1.26618    -20.645068    -20.645066
   1.28214    -20.644970    -20.644970
   1.28214    -20.644970    -20.644970
   1.29775    -20.645378    -20.645378
   1.31335    -20.645817    -20.645815
   1.32896    -20.646256    -20.646256
   1.34456    -20.646699    -20.646699
   1.36017    -20.647145    -20.647145
   1.37577    -20.647590    -20.647590
   1.39138    -20.648032    -20.648032
   1.40698    -20.648474    -20.648474
   1.42259    -20.648913    -20.648913
   1.43819    -20.649346    -20.649346
   1.45380    -20.649774    -20.649774
   1.46940    -20.650194    -20.650193
   1.48501    -20.650605    -20.650605
   1.50062    -20.651005    -20.651005
   1.51622    -20.651395    -20.651395
   1.53183    -20.651773    -20.651773
   1.54743    -20.652136    -20.652136
   1.56304    -20.652485    -20.652485
   1.57864    -20.652819    -20.652817
   1.59425    -20.653134    -20.653134
   1.60985    -20.653430    -20.653430
   1.62546    -20.653708    -20.653708
   1.64106    -20.653964    -20.653964
   1.65667    -20.654199    -20.654199
   1.67227    -20.654412    -20.654412
   1.68788    -20.654603    -20.654603
   1.70348    -20.654769    -20.654769
   1.71909    -20.654910    -20.654910
   1.73469    -20.655026    -20.655026
   1.75030    -20.655118    -20.655118
   1.76591    -20.655183    -20.655183
   1.78151    -20.655222    -20.655222
   1.79712    -20.655234    -20.655234
   1.79712    -20.655234    -20.655234
   1.81276    -20.655220    -20.655220
   1.82841    -20.655175    -20.655175
   1.84406    -20.655102    -20.655102
   1.85971    -20.654998    -20.654998
   1.87536    -20.654868    -20.654868
   1.89101    -20.654710    -20.654710
   1.90666    -20.654525    -20.654524
   1.92230    -20.654314    -20.654314
   1.93795    -20.654080    -20.654080
   1.95360    -20.653824    -20.653824
   1.96925    -20.653546    -20.653546
   1.98490    -20.653252    -20.653252
   2.00055    -20.652938    -20.652938
   2.01619    -20.652611    -20.652611
   2.03184    -20.652271    -20.652271
   2.04749    -20.651919    -20.651919
   2.06314    -20.651559    -20.651559
   2.07879    -20.651193    -20.651193
   2.09444    -20.650824    -20.650824
   2.11009    -20.650453    -20.650453
   2.12573    -20.650084    -20.650084
   2.14138    -20.649718    -20.649718
   2.15703    -20.649358    -20.649358
   2.17268    -20.649006    -20.649006
   2.18833    -20.648665    -20.648665
   2.20398    -20.648336    -20.648336
   2.21962    -20.648021    -20.648021
   2.23527    -20.647725    -20.647725
   2.25092    -20.647447    -20.647446
   2.26657    -20.647188    -20.647188
   2.28222    -20.646954    -20.646954
   2.29787    -20.646743    -20.646743
   2.31352    -20.646558    -20.646558
   2.32916    -20.646398    -20.646398
   2.34481    -20.646267    -20.646267
   2.36046    -20.646163    -20.646163
   2.37611    -20.646088    -20.646088
   2.39176    -20.646043    -20.646043
   2.40741    -20.646028    -20.646028
   2.40741    -20.646028    -20.646028
   2.42447    -20.646017    -20.646017
   2.44153    -20.645986    -20.645986
   2.45859    -20.645933    -20.645933
   2.47566    -20.645860    -20.645860
   2.49272    -20.645767    -20.645767
   2.50978    -20.645654    -20.645654
   2.52684    -20.645522    -20.645522
   2.54390    -20.645373    -20.645373
   2.56097    -20.645206    -20.645206
   2.57803    -20.645021    -20.645021
   2.59509    -20.644821    -20.644821
   2.61215    -20.644607    -20.644607
   2.62922    -20.644633    -20.644633
   2.64628    -20.644917    -20.644917
   2.64628    -20.644917    -20.644917
   2.66183    -20.645190    -20.645190
   2.67737    -20.645477    -20.645477
   2.69292    -20.645775    -20.645775
   2.70847    -20.646087    -20.646087
   2.72402    -20.646408    -20.646408
   2.73957    -20.646740    -20.646738
   2.75512    -20.647079    -20.647078
   2.77066    -20.647427    -20.647427
   2.78621    -20.647781    -20.647781
   2.80176    -20.648142    -20.648140
   2.81731    -20.648505    -20.648505
   2.83286    -20.648873    -20.648873
   2.84841    -20.649242    -20.649242
   2.86395    -20.649611    -20.649611
   2.87950    -20.649980    -20.649980
   2.89505    -20.650346    -20.650346
   2.91060    -20.650709    -20.650709
   2.92615    -20.651066    -20.651066
   2.94170    -20.651418    -20.651418
   2.95724    -20.651761    -20.651761
   2.97279    -20.652096    -20.652096
   2.98834    -20.652420    -20.652420
   3.00389    -20.652732    -20.652732
   3.01944    -20.653030    -20.653030
   3.03499    -20.653315    -20.653315
   3.05053    -20.653584    -20.653582
   3.06608    -20.653835    -20.653835
   3.08163    -20.654067    -20.654067
   3.09718    -20.654283    -20.654283
   3.11273    -20.654477    -20.654477
   3.12828    -20.654652    -20.654651
   3.14382    -20.654804    -20.654804
   3.15937    -20.654936    -20.654935
   3.17492    -20.655043    -20.655043
   3.19047    -20.655127    -20.655127
   3.20602    -20.655186    -20.655186
   3.22156    -20.655223    -20.655223
   3.23711    -20.655234    -20.655234
   3.23711    -20.650416    -20.650416
   3.25329    -20.650404    -20.650404
   3.26947    -20.650365    -20.650365
   3.28565    -20.650300    -20.650300
   3.30183    -20.650208    -20.650208
   3.31801    -20.650092    -20.650092
   3.33419    -20.649952    -20.649952
   3.35038    -20.649788    -20.649788
   3.36656    -20.649603    -20.649603
   3.38274    -20.649395    -20.649395
   3.39892    -20.649169    -20.649169
   3.41510    -20.648925    -20.648925
   3.43128    -20.648665    -20.648665
   3.44746    -20.648392    -20.648392
   3.46364    -20.648105    -20.648105
   3.47982    -20.647807    -20.647807
   3.49600    -20.647503    -20.647503
   3.49600    -20.644787    -20.644787
   3.51218    -20.644644    -20.644644
   3.52836    -20.644497    -20.644497
   3.54455    -20.644458    -20.644458
   3.56073    -20.644604    -20.644604
   3.57692    -20.644748    -20.644748
   3.59310    -20.644891    -20.644891
   3.60928    -20.645029    -20.645029
   3.62547    -20.645162    -20.645162
   3.64165    -20.645288    -20.645288
   3.65783    -20.645407    -20.645407
   3.67402    -20.645519    -20.645519
   3.69020    -20.645621    -20.645620
   3.70638    -20.645713    -20.645713
   3.72257    -20.645794    -20.645794
   3.73875    -20.645863    -20.645863
   3.75494    -20.645922    -20.645922
   3.77112    -20.645969    -20.645967
   3.78730    -20.646001    -20.646001
   3.80349    -20.646022    -20.646022
   3.81967    -20.646028    -20.646028
 
# Band-Index    2
   3.81967    -20.642776    -20.642776
   3.80349    -20.642783    -20.642783
   3.78730    -20.642803    -20.642803
   3.77112    -20.642835    -20.642835
   3.75494    -20.642882    -20.642882
   3.73875    -20.642939    -20.642939
   3.72257    -20.643009    -20.643009
   3.70638    -20.643090    -20.643090
   3.69020    -20.643183    -20.643183
   3.67402    -20.643287    -20.643287
   3.65783    -20.643398    -20.643398
   3.64165    -20.643518    -20.643518
   3.62547    -20.643645    -20.643645
   3.60928    -20.643779    -20.643779
   3.59310    -20.643918    -20.643918
   3.57692    -20.644059    -20.644059
   3.56073    -20.644205    -20.644204
   3.54455    -20.644351    -20.644351
   3.52836    -20.644311    -20.644311
   3.51218    -20.644165    -20.644165
   3.49600    -20.644021    -20.644021
   3.49600    -20.641787    -20.641787
   3.47982    -20.641512    -20.641511
   3.46364    -20.641244    -20.641244
   3.44746    -20.640985    -20.640985
   3.43128    -20.640738    -20.640737
   3.41510    -20.640502    -20.640502
   3.39892    -20.640282    -20.640282
   3.38274    -20.640079    -20.640079
   3.36656    -20.639893    -20.639893
   3.35038    -20.639725    -20.639725
   3.33419    -20.639578    -20.639578
   3.31801    -20.639451    -20.639451
   3.30183    -20.639345    -20.639345
   3.28565    -20.639263    -20.639263
   3.26947    -20.639204    -20.639204
   3.25329    -20.639170    -20.639168
   3.23711    -20.639158    -20.639156
   3.23711    -20.637051    -20.637051
   3.22156    -20.637057    -20.637057
   3.20602    -20.637077    -20.637077
   3.19047    -20.637112    -20.637112
   3.17492    -20.637158    -20.637158
   3.15937    -20.637220    -20.637220
   3.14382    -20.637293    -20.637293
   3.12828    -20.637380    -20.637380
   3.11273    -20.637481    -20.637481
   3.09718    -20.637592    -20.637592
   3.08163    -20.637718    -20.637718
   3.06608    -20.637856    -20.637856
   3.05053    -20.638005    -20.638005
   3.03499    -20.638165    -20.638165
   3.01944    -20.638337    -20.638337
   3.00389    -20.638520    -20.638520
   2.98834    -20.638714    -20.638712
   2.97279    -20.638916    -20.638916
   2.95724    -20.639128    -20.639128
   2.94170    -20.639348    -20.639348
   2.92615    -20.639578    -20.639576
   2.91060    -20.639812    -20.639812
   2.89505    -20.640056    -20.640056
   2.87950    -20.640304    -20.640304
   2.86395    -20.640557    -20.640557
   2.84841    -20.640816    -20.640814
   2.83286    -20.641076    -20.641076
   2.81731    -20.641340    -20.641340
   2.80176    -20.641607    -20.641607
   2.78621    -20.641872    -20.641872
   2.77066    -20.642139    -20.642139
   2.75512    -20.642404    -20.642404
   2.73957    -20.642666    -20.642666
   2.72402    -20.642927    -20.642927
   2.70847    -20.643181    -20.643181
   2.69292    -20.643431    -20.643431
   2.67737    -20.643676    -20.643675
   2.66183    -20.643912    -20.643912
   2.64628    -20.644140    -20.644140
   2.64628    -20.644140    -20.644140
   2.62922    -20.644379    -20.644379
   2.61215    -20.644368    -20.644368
   2.59509    -20.644120    -20.644120
   2.57803    -20.643892    -20.643892
   2.56097    -20.643684    -20.643684
   2.54390    -20.643496    -20.643496
   2.52684    -20.643330    -20.643330
   2.50978    -20.643183    -20.643183
   2.49272    -20.643059    -20.643059
   2.47566    -20.642958    -20.642958
   2.45859    -20.642879    -20.642879
   2.44153    -20.642821    -20.642821
   2.42447    -20.642787    -20.642787
   2.40741    -20.642776    -20.642776
   2.40741    -20.642776    -20.642776
   2.39176    -20.642767    -20.642767
   2.37611    -20.642739    -20.642739
   2.36046    -20.642694    -20.642694
   2.34481    -20.642629    -20.642629
   2.32916    -20.642547    -20.642547
   2.31352    -20.642449    -20.642449
   2.29787    -20.642333    -20.642333
   2.28222    -20.642203    -20.642203
   2.26657    -20.642057    -20.642057
   2.25092    -20.641897    -20.641897
   2.23527    -20.641725    -20.641725
   2.21962    -20.641542    -20.641542
   2.20398    -20.641346    -20.641346
   2.18833    -20.641143    -20.641143
   2.17268    -20.640931    -20.640931
   2.15703    -20.640712    -20.640712
   2.14138    -20.640488    -20.640488
   2.12573    -20.640260    -20.640260
   2.11009    -20.640031    -20.640031
   2.09444    -20.639800    -20.639800
   2.07879    -20.639570    -20.639570
   2.06314    -20.639342    -20.639342
   2.04749    -20.639117    -20.639117
   2.03184    -20.638899    -20.638899
   2.01619    -20.638686    -20.638686
   2.00055    -20.638483    -20.638483
   1.98490    -20.638289    -20.638289
   1.96925    -20.638103    -20.638103
   1.95360    -20.637932    -20.637932
   1.93795    -20.637771    -20.637771
   1.92230    -20.637625    -20.637625
   1.90666    -20.637495    -20.637495
   1.89101    -20.637380    -20.637380
   1.87536    -20.637281    -20.637281
   1.85971    -20.637198    -20.637197
   1.84406    -20.637133    -20.637133
   1.82841    -20.637087    -20.637087
   1.81276    -20.637060    -20.637059
   1.79712    -20.637051    -20.637051
   1.79712    -20.637051    -20.637051
   1.78151    -20.637059    -20.637059
   1.76591    -20.637082    -20.637082
   1.75030    -20.637119    -20.637119
   1.73469    -20.637174    -20.637174
   1.71909    -20.637242    -20.637242
   1.70348    -20.637327    -20.637327
   1.68788    -20.637426    -20.637426
   1.67227    -20.637541    -20.637541
   1.65667    -20.637673    -20.637673
   1.64106    -20.637819    -20.637819
   1.62546    -20.637980    -20.637980
   1.60985    -20.638156    -20.638156
   1.59425    -20.638346    -20.638346
   1.57864    -20.638553    -20.638553
   1.56304    -20.638773    -20.638773
   1.54743    -20.639009    -20.639009
   1.53183    -20.639257    -20.639257
   1.51622    -20.639522    -20.639522
   1.50062    -20.639800    -20.639800
   1.48501    -20.640091    -20.640091
   1.46940    -20.640397    -20.640397
   1.45380    -20.640715    -20.640715
   1.43819    -20.641047    -20.641047
   1.42259    -20.641390    -20.641390
   1.40698    -20.641745    -20.641745
   1.39138    -20.642111    -20.642111
   1.37577    -20.642489    -20.642489
   1.36017    -20.642877    -20.642877
   1.34456    -20.643274    -20.643274
   1.32896    -20.643681    -20.643681
   1.31335    -20.644095    -20.644095
   1.29775    -20.644517    -20.644517
   1.28214    -20.644920    -20.644920
   1.28214    -20.644920    -20.644920
   1.26618    -20.644821    -20.644821
   1.25023    -20.644697    -20.644697
   1.23427    -20.644573    -20.644571
   1.21832    -20.644446    -20.644446
   1.20236    -20.644318    -20.644318
   1.18640    -20.644191    -20.644191
   1.17045    -20.644064    -20.644064
   1.15449    -20.643940    -20.643940
   1.13853    -20.643816    -20.643816
   1.12258    -20.643695    -20.643695
   1.10662    -20.643578    -20.643578
   1.09066    -20.643465    -20.643465
   1.07471    -20.643357    -20.643357
   1.05875    -20.643253    -20.643253
   1.04279    -20.643155    -20.643155
   1.02684    -20.643063    -20.643063
   1.01088    -20.642978    -20.642978
   0.99493    -20.642901    -20.642901
   0.97897    -20.642831    -20.642831
   0.96301    -20.642770    -20.642770
   0.94706    -20.642719    -20.642719
   0.93110    -20.642676    -20.642676
   0.91514    -20.642642    -20.642642
   0.89919    -20.642618    -20.642618
   0.88323    -20.642603    -20.642603
   0.86727    -20.642598    -20.642598
   0.86727    -20.642598    -20.642598
   0.85121    -20.642314    -20.642314
   0.83515    -20.642032    -20.642032
   0.81909    -20.641754    -20.641754
   0.80303    -20.641481    -20.641481
   0.78697    -20.641216    -20.641216
   0.77091    -20.640960    -20.640960
   0.75485    -20.640715    -20.640715
   0.73879    -20.640484    -20.640484
   0.72273    -20.640268    -20.640267
   0.70667    -20.640065    -20.640065
   0.69061    -20.639882    -20.639882
   0.67455    -20.639718    -20.639718
   0.65849    -20.639572    -20.639572
   0.64243    -20.639446    -20.639446
   0.62637    -20.639344    -20.639344
   0.61031    -20.639263    -20.639263
   0.59425    -20.639204    -20.639204
   0.57819    -20.639168    -20.639168
   0.56213    -20.639158    -20.639156
   0.56213    -20.639158    -20.639156
   0.54651    -20.639153    -20.639153
   0.53090    -20.639141    -20.639141
   0.51529    -20.639120    -20.639120
   0.49967    -20.639094    -20.639092
   0.48406    -20.639057    -20.639057
   0.46844    -20.639015    -20.639015
   0.45283    -20.638967    -20.638965
   0.43721    -20.638911    -20.638911
   0.42160    -20.638849    -20.638849
   0.40598    -20.638781    -20.638781
   0.39037    -20.638708    -20.638708
   0.37475    -20.638630    -20.638630
   0.35914    -20.638548    -20.638548
   0.34352    -20.638464    -20.638464
   0.32791    -20.638376    -20.638376
   0.31229    -20.638286    -20.638286
   0.29668    -20.638194    -20.638194
   0.28106    -20.638103    -20.638101
   0.26545    -20.638011    -20.638011
   0.24984    -20.637920    -20.637920
   0.23422    -20.637830    -20.637830
   0.21861    -20.637743    -20.637743
   0.20299    -20.637659    -20.637659
   0.18738    -20.637577    -20.637577
   0.17176    -20.637501    -20.637501
   0.15615    -20.637428    -20.637428
   0.14053    -20.637360    -20.637360
   0.12492    -20.637298    -20.637298
   0.10930    -20.637242    -20.637242
   0.09369    -20.637192    -20.637192
   0.07807    -20.637149    -20.637149
   0.06246    -20.637113    -20.637113
   0.04684    -20.637087    -20.637087
   0.03123    -20.637067    -20.637067
   0.01561    -20.637054    -20.637054
   0.00000    -20.637051    -20.637051
 
# Band-Index    3
   0.00000    -15.767561    -15.767561
   0.01561    -15.767558    -15.767556
   0.03123    -15.767553    -15.767553
   0.04684    -15.767547    -15.767546
   0.06246    -15.767532    -15.767530
   0.07807    -15.767511    -15.767509
   0.09369    -15.767482    -15.767482
   0.10930    -15.767452    -15.767452
   0.12492    -15.767418    -15.767418
