#K-Path(1/A)         Spin-Up(eV)   Spin-down(eV)
# NKPTS & NBANDS: 356  80
# Band-Index    1
   0.00000    -25.790845    -25.790845
   0.01578    -25.790845    -25.790845
   0.03156    -25.790845    -25.790845
   0.04734    -25.790845    -25.790845
   0.06312    -25.790844    -25.790844
   0.07890    -25.790844    -25.790844
   0.09468    -25.790844    -25.790844
   0.11045    -25.790844    -25.790844
   0.12623    -25.790843    -25.790843
   0.14201    -25.790842    -25.790842
   0.15779    -25.790841    -25.790841
   0.17357    -25.790840    -25.790840
   0.18935    -25.790838    -25.790838
   0.20513    -25.790837    -25.790837
   0.22091    -25.790836    -25.790836
   0.23669    -25.790835    -25.790835
   0.25247    -25.790834    -25.790834
   0.26825    -25.790833    -25.790833
   0.28403    -25.790832    -25.790832
   0.29980    -25.790831    -25.790831
   0.31558    -25.790829    -25.790829
   0.33136    -25.790828    -25.790828
   0.34714    -25.790827    -25.790827
   0.36292    -25.790826    -25.790826
   0.37870    -25.790825    -25.790825
   0.39448    -25.790825    -25.790825
   0.41026    -25.790824    -25.790824
   0.42604    -25.790824    -25.790824
   0.44182    -25.790824    -25.790824
   0.45760    -25.790824    -25.790824
   0.47338    -25.790824    -25.790824
   0.48915    -25.790824    -25.790824
   0.48915    -25.790824    -25.790824
   0.50476    -25.790824    -25.790824
   0.52036    -25.790824    -25.790824
   0.53597    -25.790824    -25.790824
   0.55157    -25.790825    -25.790825
   0.56718    -25.790825    -25.790825
   0.58278    -25.790825    -25.790825
   0.59839    -25.790826    -25.790826
   0.61399    -25.790827    -25.790827
   0.62960    -25.790827    -25.790827
   0.64520    -25.790829    -25.790829
   0.66081    -25.790830    -25.790830
   0.67641    -25.790831    -25.790831
   0.69202    -25.790832    -25.790832
   0.70762    -25.790833    -25.790833
   0.72322    -25.790834    -25.790834
   0.73883    -25.790835    -25.790835
   0.75443    -25.790837    -25.790837
   0.77004    -25.790838    -25.790838
   0.78564    -25.790839    -25.790839
   0.80125    -25.790840    -25.790840
   0.81685    -25.790842    -25.790842
   0.83246    -25.790843    -25.790843
   0.84806    -25.790843    -25.790843
   0.86367    -25.790844    -25.790844
   0.87927    -25.790844    -25.790844
   0.89488    -25.790844    -25.790844
   0.91048    -25.790844    -25.790844
   0.92608    -25.790845    -25.790845
   0.94169    -25.790845    -25.790845
   0.95729    -25.790845    -25.790845
   0.97290    -25.790845    -25.790845
   0.97290    -25.790845    -25.790845
   0.98698    -25.790845    -25.790845
   1.00106    -25.790845    -25.790845
   1.01513    -25.790845    -25.790845
   1.02921    -25.790845    -25.790845
   1.04329    -25.790844    -25.790844
   1.05737    -25.790844    -25.790844
   1.07145    -25.790844    -25.790844
   1.08553    -25.790843    -25.790843
   1.09960    -25.790843    -25.790843
   1.11368    -25.790842    -25.790842
   1.12776    -25.790841    -25.790841
   1.14184    -25.790840    -25.790840
   1.15592    -25.790839    -25.790839
   1.17000    -25.790838    -25.790838
   1.18407    -25.790837    -25.790837
   1.19815    -25.790836    -25.790836
   1.21223    -25.790835    -25.790835
   1.22631    -25.790834    -25.790834
   1.24039    -25.790834    -25.790834
   1.25447    -25.790832    -25.790832
   1.26854    -25.790831    -25.790831
   1.28262    -25.790830    -25.790830
   1.29670    -25.790829    -25.790829
   1.31078    -25.790828    -25.790828
   1.32486    -25.790827    -25.790827
   1.33894    -25.790826    -25.790826
   1.35301    -25.790826    -25.790826
   1.36709    -25.790825    -25.790825
   1.38117    -25.790825    -25.790825
   1.39525    -25.790825    -25.790825
   1.40933    -25.790825    -25.790825
   1.42341    -25.790825    -25.790825
   1.43748    -25.790824    -25.790824
   1.45156    -25.790824    -25.790824
   1.46564    -25.790824    -25.790824
   1.46564    -25.790824    -25.790824
   1.47169    -25.790824    -25.790824
   1.47774    -25.790824    -25.790824
   1.48379    -25.790824    -25.790824
   1.48984    -25.790824    -25.790824
   1.49589    -25.790824    -25.790824
   1.50194    -25.790824    -25.790824
   1.50799    -25.790824    -25.790824
   1.51404    -25.790825    -25.790825
   1.52009    -25.790824    -25.790824
   1.52614    -25.790825    -25.790825
   1.53219    -25.790825    -25.790825
   1.53824    -25.790825    -25.790825
   1.54429    -25.790825    -25.790825
   1.55034    -25.790825    -25.790825
   1.55639    -25.790825    -25.790825
   1.56244    -25.790825    -25.790825
   1.56849    -25.790825    -25.790825
   1.57454    -25.790826    -25.790826
   1.58059    -25.790826    -25.790826
   1.58664    -25.790826    -25.790826
   1.59269    -25.790826    -25.790826
   1.59874    -25.790827    -25.790827
   1.60479    -25.790827    -25.790827
   1.61084    -25.790827    -25.790827
   1.61689    -25.790828    -25.790828
   1.62294    -25.790828    -25.790828
   1.62899    -25.790829    -25.790829
   1.63504    -25.790829    -25.790829
   1.64109    -25.790830    -25.790830
   1.64714    -25.790830    -25.790830
   1.65319    -25.790831    -25.790831
   1.65924    -25.790831    -25.790831
   1.66529    -25.790832    -25.790832
   1.67134    -25.790832    -25.790832
   1.67739    -25.790833    -25.790833
   1.68344    -25.790833    -25.790833
   1.68949    -25.790834    -25.790834
   1.69553    -25.790834    -25.790834
   1.70158    -25.790834    -25.790834
   1.70763    -25.790835    -25.790835
   1.71368    -25.790835    -25.790835
   1.71973    -25.790836    -25.790836
   1.72578    -25.790836    -25.790836
   1.73183    -25.790836    -25.790836
   1.73788    -25.790837    -25.790837
   1.74393    -25.790837    -25.790837
   1.74998    -25.790838    -25.790838
   1.75603    -25.790838    -25.790838
   1.76208    -25.790838    -25.790838
   1.76813    -25.790839    -25.790839
   1.77418    -25.790839    -25.790839
   1.78023    -25.790840    -25.790840
   1.78628    -25.790840    -25.790840
   1.79233    -25.790841    -25.790841
   1.79838    -25.790841    -25.790841
   1.80443    -25.790842    -25.790842
   1.81048    -25.790842    -25.790842
   1.81653    -25.790843    -25.790843
   1.82258    -25.790843    -25.790843
   1.82863    -25.790843    -25.790843
   1.83468    -25.790843    -25.790843
   1.84073    -25.790844    -25.790844
   1.84678    -25.790844    -25.790844
   1.85283    -25.790844    -25.790844
   1.85888    -25.790844    -25.790844
   1.86493    -25.790844    -25.790844
   1.87098    -25.790844    -25.790844
   1.87703    -25.790844    -25.790844
   1.88308    -25.790844    -25.790844
   1.88913    -25.790844    -25.790844
   1.89518    -25.790845    -25.790845
   1.90123    -25.790845    -25.790845
   1.90728    -25.790845    -25.790845
   1.91333    -25.790845    -25.790845
   1.91938    -25.790845    -25.790845
   1.92543    -25.790845    -25.790845
   1.93148    -25.790845    -25.790845
   1.93753    -25.790845    -25.790845
   1.94358    -25.790845    -25.790845
   1.94963    -25.790845    -25.790845
   1.95568    -25.790845    -25.790845
   1.95568    -25.790845    -25.790845
   1.96491    -25.790845    -25.790845
   1.97414    -25.790845    -25.790845
   1.98338    -25.790844    -25.790844
   1.99261    -25.790844    -25.790844
   2.00184    -25.790844    -25.790844
   2.01107    -25.790844    -25.790844
   2.02031    -25.790844    -25.790844
   2.02954    -25.790843    -25.790843
   2.03877    -25.790843    -25.790843
   2.04800    -25.790843    -25.790843
   2.05724    -25.790843    -25.790843
   2.06647    -25.790843    -25.790843
   2.07570    -25.790843    -25.790843
   2.08493    -25.790842    -25.790842
   2.09417    -25.790842    -25.790842
   2.10340    -25.790842    -25.790842
   2.11263    -25.790841    -25.790841
   2.12186    -25.790840    -25.790840
   2.13110    -25.790840    -25.790840
   2.14033    -25.790839    -25.790839
   2.14956    -25.790838    -25.790838
   2.15879    -25.790837    -25.790837
   2.16803    -25.790836    -25.790836
   2.17726    -25.790835    -25.790835
   2.18649    -25.790835    -25.790835
   2.19572    -25.790834    -25.790834
   2.20496    -25.790834    -25.790834
   2.21419    -25.790833    -25.790833
   2.22342    -25.790833    -25.790833
   2.23265    -25.790832    -25.790832
   2.24189    -25.790832    -25.790832
   2.25112    -25.790831    -25.790831
   2.26035    -25.790831    -25.790831
   2.26958    -25.790830    -25.790830
   2.27882    -25.790830    -25.790830
   2.28805    -25.790829    -25.790829
   2.29728    -25.790829    -25.790829
   2.30651    -25.790828    -25.790828
   2.31575    -25.790828    -25.790828
   2.32498    -25.790828    -25.790828
   2.33421    -25.790827    -25.790827
   2.34344    -25.790827    -25.790827
   2.35268    -25.790827    -25.790827
   2.36191    -25.790826    -25.790826
   2.37114    -25.790826    -25.790826
   2.38037    -25.790825    -25.790825
   2.38961    -25.790825    -25.790825
   2.39884    -25.790824    -25.790824
   2.40807    -25.790823    -25.790823
   2.41730    -25.790823    -25.790823
   2.42654    -25.790822    -25.790822
   2.43577    -25.790822    -25.790822
   2.44500    -25.790821    -25.790821
   2.45423    -25.790821    -25.790821
   2.46347    -25.790821    -25.790821
   2.47270    -25.790821    -25.790821
   2.48193    -25.790821    -25.790821
   2.49116    -25.790821    -25.790821
   2.50040    -25.790821    -25.790821
   2.50963    -25.790821    -25.790821
   2.50963    -25.790814    -25.790814
   2.51913    -25.790814    -25.790814
   2.52863    -25.790814    -25.790814
   2.53813    -25.790814    -25.790814
   2.54763    -25.790815    -25.790815
   2.55713    -25.790815    -25.790815
   2.56663    -25.790815    -25.790815
   2.57613    -25.790815    -25.790815
   2.58564    -25.790816    -25.790816
   2.59514    -25.790816    -25.790816
   2.60464    -25.790817    -25.790817
   2.61414    -25.790817    -25.790817
   2.62364    -25.790818    -25.790818
   2.63314    -25.790818    -25.790818
   2.64264    -25.790818    -25.790818
   2.65214    -25.790819    -25.790819
   2.66164    -25.790820    -25.790820
   2.67114    -25.790821    -25.790821
   2.68064    -25.790821    -25.790821
   2.69014    -25.790822    -25.790822
   2.69964    -25.790823    -25.790823
   2.70915    -25.790823    -25.790823
   2.71865    -25.790824    -25.790824
   2.72815    -25.790825    -25.790825
   2.73765    -25.790825    -25.790825
   2.74715    -25.790826    -25.790826
   2.75665    -25.790827    -25.790827
   2.76615    -25.790827    -25.790827
   2.77565    -25.790827    -25.790827
   2.78515    -25.790828    -25.790828
   2.79465    -25.790829    -25.790829
   2.80415    -25.790830    -25.790830
   2.81365    -25.790830    -25.790830
   2.82315    -25.790831    -25.790831
   2.83265    -25.790832    -25.790832
   2.84216    -25.790833    -25.790833
   2.85166    -25.790834    -25.790834
   2.86116    -25.790835    -25.790835
   2.87066    -25.790836    -25.790836
   2.88016    -25.790837    -25.790837
   2.88966    -25.790838    -25.790838
   2.89916    -25.790838    -25.790838
   2.90866    -25.790839    -25.790839
   2.91816    -25.790840    -25.790840
   2.92766    -25.790840    -25.790840
   2.93716    -25.790841    -25.790841
   2.94666    -25.790841    -25.790841
   2.95616    -25.790842    -25.790842
   2.96567    -25.790842    -25.790842
   2.97517    -25.790843    -25.790843
   2.98467    -25.790843    -25.790843
   2.99417    -25.790844    -25.790844
   3.00367    -25.790844    -25.790844
   3.01317    -25.790845    -25.790845
   3.02267    -25.790845    -25.790845
   3.03217    -25.790845    -25.790845
   3.04167    -25.790845    -25.790845
   3.05117    -25.790845    -25.790845
   3.06067    -25.790845    -25.790845
   3.07017    -25.790845    -25.790845
   3.07967    -25.790845    -25.790845
   3.07967    -25.790845    -25.790845
   3.09084    -25.790845    -25.790845
   3.10201    -25.790845    -25.790845
   3.11318    -25.790845    -25.790845
   3.12435    -25.790845    -25.790845
   3.13551    -25.790845    -25.790845
   3.14668    -25.790845    -25.790845
   3.15785    -25.790844    -25.790844
   3.16902    -25.790844    -25.790844
   3.18019    -25.790843    -25.790843
   3.19135    -25.790843    -25.790843
   3.20252    -25.790842    -25.790842
   3.21369    -25.790842    -25.790842
   3.22486    -25.790841    -25.790841
   3.23602    -25.790840    -25.790840
   3.24719    -25.790839    -25.790839
   3.25836    -25.790839    -25.790839
   3.26953    -25.790838    -25.790838
   3.28070    -25.790837    -25.790837
   3.29186    -25.790836    -25.790836
   3.30303    -25.790835    -25.790835
   3.31420    -25.790834    -25.790834
   3.32537    -25.790832    -25.790832
   3.33653    -25.790832    -25.790832
   3.34770    -25.790831    -25.790831
   3.35887    -25.790830    -25.790830
   3.37004    -25.790829    -25.790829
   3.38121    -25.790828    -25.790828
   3.39237    -25.790827    -25.790827
   3.40354    -25.790827    -25.790827
   3.41471    -25.790826    -25.790826
   3.42588    -25.790825    -25.790825
   3.43705    -25.790825    -25.790825
   3.44821    -25.790824    -25.790824
   3.45938    -25.790823    -25.790823
   3.47055    -25.790822    -25.790822
   3.48172    -25.790822    -25.790822
   3.49288    -25.790820    -25.790820
   3.50405    -25.790820    -25.790820
   3.51522    -25.790819    -25.790819
   3.52639    -25.790818    -25.790818
   3.53756    -25.790818    -25.790818
   3.54872    -25.790817    -25.790817
   3.55989    -25.790817    -25.790817
   3.57106    -25.790816    -25.790816
   3.58223    -25.790816    -25.790816
   3.59340    -25.790815    -25.790815
   3.60456    -25.790815    -25.790815
   3.61573    -25.790815    -25.790815
   3.62690    -25.790815    -25.790815
   3.63807    -25.790814    -25.790814
   3.64923    -25.790814    -25.790814
 
# Band-Index    2
   3.64923    -19.538941    -19.538941
   3.63807    -19.538944    -19.538944
   3.62690    -19.538954    -19.538954
   3.61573    -19.538971    -19.538971
   3.60456    -19.538994    -19.538994
   3.59340    -19.539024    -19.539024
   3.58223    -19.539059    -19.539059
   3.57106    -19.539101    -19.539101
   3.55989    -19.539149    -19.539149
   3.54872    -19.539202    -19.539202
   3.53756    -19.539260    -19.539260
   3.52639    -19.539324    -19.539324
   3.51522    -19.539391    -19.539391
   3.50405    -19.539464    -19.539464
   3.49288    -19.539540    -19.539540
   3.48172    -19.539619    -19.539619
   3.47055    -19.539702    -19.539702
   3.45938    -19.539788    -19.539788
   3.44821    -19.539877    -19.539877
   3.43705    -19.539968    -19.539968
   3.42588    -19.540061    -19.540061
   3.41471    -19.540155    -19.540155
   3.40354    -19.540251    -19.540251
   3.39237    -19.540348    -19.540348
   3.38121    -19.540445    -19.540445
   3.37004    -19.540543    -19.540543
   3.35887    -19.540640    -19.540640
   3.34770    -19.540737    -19.540737
   3.33653    -19.540833    -19.540833
   3.32537    -19.540928    -19.540928
   3.31420    -19.541022    -19.541022
   3.30303    -19.541114    -19.541114
   3.29186    -19.541204    -19.541204
   3.28070    -19.541291    -19.541291
   3.26953    -19.541376    -19.541376
   3.25836    -19.541457    -19.541457
   3.24719    -19.541535    -19.541535
   3.23602    -19.541609    -19.541609
   3.22486    -19.541680    -19.541680
   3.21369    -19.541746    -19.541746
   3.20252    -19.541808    -19.541808
   3.19135    -19.541865    -19.541865
   3.18019    -19.541918    -19.541918
   3.16902    -19.541965    -19.541965
   3.15785    -19.542007    -19.542007
   3.14668    -19.542044    -19.542044
   3.13551    -19.542076    -19.542076
   3.12435    -19.542101    -19.542101
   3.11318    -19.542122    -19.542122
   3.10201    -19.542136    -19.542136
   3.09084    -19.542145    -19.542145
   3.07967    -19.542147    -19.542147
   3.07967    -19.542147    -19.542147
   3.07017    -19.542145    -19.542145
   3.06067    -19.542140    -19.542140
   3.05117    -19.542130    -19.542130
   3.04167    -19.542116    -19.542116
   3.03217    -19.542098    -19.542098
   3.02267    -19.542076    -19.542076
   3.01317    -19.542051    -19.542051
   3.00367    -19.542021    -19.542021
   2.99417    -19.541988    -19.541988
   2.98467    -19.541952    -19.541952
   2.97517    -19.541912    -19.541912
   2.96567    -19.541869    -19.541869
   2.95616    -19.541822    -19.541822
   2.94666    -19.541772    -19.541772
   2.93716    -19.541719    -19.541719
   2.92766    -19.541664    -19.541664
   2.91816    -19.541605    -19.541605
   2.90866    -19.541545    -19.541545
   2.89916    -19.541481    -19.541481
   2.88966    -19.541416    -19.541416
   2.88016    -19.541348    -19.541348
   2.87066    -19.541279    -19.541279
   2.86116    -19.541208    -19.541208
   2.85166    -19.541135    -19.541135
   2.84216    -19.541061    -19.541061
   2.83265    -19.540986    -19.540986
   2.82315    -19.540911    -19.540911
   2.81365    -19.540834    -19.540834
   2.80415    -19.540757    -19.540757
   2.79465    -19.540680    -19.540680
   2.78515    -19.540603    -19.540603
   2.77565    -19.540526    -19.540526
   2.76615    -19.540449    -19.540449
   2.75665    -19.540374    -19.540374
   2.74715    -19.540299    -19.540299
   2.73765    -19.540224    -19.540224
   2.72815    -19.540151    -19.540151
   2.71865    -19.540080    -19.540080
   2.70915    -19.540010    -19.540010
   2.69964    -19.539942    -19.539942
   2.69014    -19.539875    -19.539875
   2.68064    -19.539811    -19.539811
   2.67114    -19.539750    -19.539750
   2.66164    -19.539691    -19.539691
   2.65214    -19.539634    -19.539634
   2.64264    -19.539580    -19.539580
   2.63314    -19.539530    -19.539530
   2.62364    -19.539482    -19.539482
   2.61414    -19.539438    -19.539438
   2.60464    -19.539397    -19.539397
   2.59514    -19.539360    -19.539360
   2.58564    -19.539326    -19.539326
   2.57613    -19.539296    -19.539296
   2.56663    -19.539270    -19.539270
   2.55713    -19.539248    -19.539248
   2.54763    -19.539230    -19.539230
   2.53813    -19.539216    -19.539216
   2.52863    -19.539205    -19.539205
   2.51913    -19.539199    -19.539199
   2.50963    -19.539197    -19.539197
   2.50963    -19.538641    -19.538641
   2.50040    -19.538643    -19.538643
   2.49116    -19.538650    -19.538650
   2.48193    -19.538662    -19.538662
   2.47270    -19.538679    -19.538679
   2.46347    -19.538700    -19.538700
   2.45423    -19.538726    -19.538726
   2.44500    -19.538756    -19.538756
   2.43577    -19.538791    -19.538791
   2.42654    -19.538830    -19.538830
   2.41730    -19.538874    -19.538874
   2.40807    -19.538922    -19.538922
   2.39884    -19.538974    -19.538974
   2.38961    -19.539029    -19.539029
   2.38037    -19.539089    -19.539089
   2.37114    -19.539152    -19.539152
   2.36191    -19.539219    -19.539219
   2.35268    -19.539288    -19.539288
   2.34344    -19.539361    -19.539361
   2.33421    -19.539437    -19.539437
   2.32498    -19.539515    -19.539515
   2.31575    -19.539596    -19.539596
   2.30651    -19.539679    -19.539679
   2.29728    -19.539763    -19.539763
   2.28805    -19.539850    -19.539850
   2.27882    -19.539938    -19.539938
   2.26958    -19.540028    -19.540028
   2.26035    -19.540118    -19.540118
   2.25112    -19.540209    -19.540209
   2.24189    -19.540301    -19.540301
   2.23265    -19.540393    -19.540393
   2.22342    -19.540485    -19.540485
   2.21419    -19.540576    -19.540576
   2.20496    -19.540667    -19.540667
   2.19572    -19.540758    -19.540758
   2.18649    -19.540848    -19.540848
   2.17726    -19.540936    -19.540936
   2.16803    -19.541022    -19.541022
   2.15879    -19.541107    -19.541107
   2.14956    -19.541190    -19.541190
