#K-Path(1/A)         Spin-Up(eV)   Spin-down(eV)
# NKPTS & NBANDS: 464  80
# Band-Index    1
   0.00000    -22.524498    -22.521223
   0.01550    -22.524499    -22.521224
   0.03100    -22.524499    -22.521225
   0.04650    -22.524500    -22.521225
   0.06199    -22.524501    -22.521226
   0.07749    -22.524501    -22.521226
   0.09299    -22.524502    -22.521228
   0.10849    -22.524503    -22.521228
   0.12399    -22.524504    -22.521229
   0.13949    -22.524505    -22.521230
   0.15499    -22.524505    -22.521231
   0.17049    -22.524507    -22.521233
   0.18598    -22.524509    -22.521234
   0.20148    -22.524511    -22.521236
   0.21698    -22.524513    -22.521239
   0.23248    -22.524516    -22.521241
   0.24798    -22.524518    -22.521244
   0.26348    -22.524521    -22.521246
   0.27898    -22.524524    -22.521249
   0.29448    -22.524527    -22.521252
   0.30997    -22.524531    -22.521256
   0.32547    -22.524535    -22.521260
   0.34097    -22.524540    -22.521265
   0.35647    -22.524545    -22.521270
   0.37197    -22.524551    -22.521276
   0.38747    -22.524557    -22.521282
   0.40297    -22.524564    -22.521288
   0.41846    -22.524571    -22.521295
   0.43396    -22.524577    -22.521301
   0.44946    -22.524584    -22.521308
   0.46496    -22.524592    -22.521315
   0.48046    -22.524599    -22.521322
   0.49596    -22.524607    -22.521330
   0.51146    -22.524615    -22.521337
   0.52696    -22.524623    -22.521345
   0.54245    -22.524630    -22.521353
   0.55795    -22.524638    -22.521360
   0.57345    -22.524646    -22.521368
   0.58895    -22.524653    -22.521375
   0.60445    -22.524661    -22.521383
   0.61995    -22.524669    -22.521390
   0.63545    -22.524676    -22.521397
   0.65095    -22.524683    -22.521404
   0.66644    -22.524690    -22.521411
   0.68194    -22.524697    -22.521417
   0.69744    -22.524704    -22.521424
   0.71294    -22.524709    -22.521430
   0.72844    -22.524715    -22.521435
   0.74394    -22.524720    -22.521440
   0.75944    -22.524724    -22.521444
   0.77493    -22.524728    -22.521447
   0.79043    -22.524730    -22.521450
   0.80593    -22.524733    -22.521452
   0.82143    -22.524734    -22.521454
   0.83693    -22.524735    -22.521455
   0.85243    -22.524735    -22.521455
   0.85243    -22.524735    -22.521455
   0.86837    -22.524735    -22.521455
   0.88431    -22.524734    -22.521453
   0.90026    -22.524732    -22.521451
   0.91620    -22.524730    -22.521450
   0.93214    -22.524727    -22.521446
   0.94808    -22.524721    -22.521441
   0.96403    -22.524715    -22.521436
   0.97997    -22.524709    -22.521429
   0.99591    -22.524702    -22.521422
   1.01185    -22.524694    -22.521415
   1.02780    -22.524686    -22.521407
   1.04374    -22.524678    -22.521399
   1.05968    -22.524669    -22.521391
   1.07562    -22.524661    -22.521382
   1.09157    -22.524652    -22.521373
   1.10751    -22.524642    -22.521364
   1.12345    -22.524633    -22.521355
   1.13939    -22.524623    -22.521346
   1.15534    -22.524614    -22.521337
   1.17128    -22.524604    -22.521327
   1.18722    -22.524596    -22.521319
   1.20316    -22.524588    -22.521311
   1.21911    -22.524580    -22.521304
   1.23505    -22.524573    -22.521297
   1.25099    -22.524565    -22.521289
   1.26693    -22.524558    -22.521283
   1.28288    -22.524552    -22.521276
   1.29882    -22.524546    -22.521271
   1.31476    -22.524541    -22.521266
   1.33070    -22.524537    -22.521261
   1.34665    -22.524533    -22.521258
   1.34665    -22.524533    -22.521258
   1.36246    -22.524530    -22.521255
   1.37828    -22.524527    -22.521252
   1.39410    -22.524525    -22.521250
   1.40992    -22.524524    -22.521249
   1.42573    -22.524522    -22.521247
   1.44155    -22.524521    -22.521246
   1.45737    -22.524521    -22.521246
   1.47319    -22.524521    -22.521246
   1.48900    -22.524521    -22.521247
   1.50482    -22.524522    -22.521247
   1.52064    -22.524523    -22.521248
   1.53646    -22.524525    -22.521250
   1.55228    -22.524526    -22.521251
   1.56809    -22.524527    -22.521252
   1.58391    -22.524529    -22.521254
   1.59973    -22.524531    -22.521256
   1.61555    -22.524533    -22.521258
   1.63136    -22.524536    -22.521261
   1.64718    -22.524538    -22.521263
   1.66300    -22.524541    -22.521266
   1.67882    -22.524544    -22.521268
   1.69463    -22.524546    -22.521270
   1.71045    -22.524548    -22.521272
   1.72627    -22.524550    -22.521274
   1.74209    -22.524551    -22.521276
   1.75790    -22.524552    -22.521277
   1.77372    -22.524554    -22.521278
   1.78954    -22.524555    -22.521279
   1.80536    -22.524556    -22.521281
   1.82117    -22.524557    -22.521282
   1.83699    -22.524557    -22.521282
   1.85281    -22.524557    -22.521282
   1.85281    -22.524557    -22.521282
   1.86835    -22.524557    -22.521282
   1.88389    -22.524557    -22.521282
   1.89943    -22.524556    -22.521281
   1.91497    -22.524556    -22.521280
   1.93051    -22.524555    -22.521280
   1.94605    -22.524554    -22.521279
   1.96159    -22.524554    -22.521278
   1.97713    -22.524553    -22.521278
   1.99267    -22.524552    -22.521277
   2.00821    -22.524551    -22.521275
   2.02375    -22.524550    -22.521274
   2.03929    -22.524549    -22.521273
   2.05483    -22.524548    -22.521272
   2.07037    -22.524547    -22.521272
   2.08591    -22.524546    -22.521271
   2.10145    -22.524545    -22.521270
   2.11699    -22.524544    -22.521269
   2.13252    -22.524543    -22.521268
   2.14806    -22.524542    -22.521267
   2.16360    -22.524541    -22.521266
   2.17914    -22.524540    -22.521265
   2.19468    -22.524540    -22.521264
   2.21022    -22.524539    -22.521264
   2.22576    -22.524538    -22.521263
   2.24130    -22.524538    -22.521262
   2.25684    -22.524537    -22.521262
   2.27238    -22.524537    -22.521262
   2.28792    -22.524537    -22.521262
   2.28792    -22.524537    -22.521262
   2.30397    -22.524537    -22.521262
   2.32002    -22.524538    -22.521262
   2.33607    -22.524538    -22.521263
   2.35212    -22.524539    -22.521264
   2.36818    -22.524540    -22.521265
   2.38423    -22.524541    -22.521265
   2.40028    -22.524542    -22.521266
   2.41633    -22.524543    -22.521267
   2.43238    -22.524543    -22.521268
   2.44843    -22.524544    -22.521269
   2.46448    -22.524545    -22.521270
   2.48053    -22.524547    -22.521271
   2.49658    -22.524547    -22.521272
   2.51263    -22.524548    -22.521273
   2.52868    -22.524549    -22.521274
   2.54473    -22.524550    -22.521275
   2.56078    -22.524551    -22.521276
   2.57683    -22.524553    -22.521277
   2.59288    -22.524553    -22.521278
   2.60893    -22.524554    -22.521279
   2.62498    -22.524555    -22.521280
   2.64104    -22.524556    -22.521280
   2.65709    -22.524556    -22.521281
   2.67314    -22.524557    -22.521282
   2.68919    -22.524557    -22.521282
   2.70524    -22.524557    -22.521282
   2.70524    -22.524557    -22.521282
   2.72073    -22.524557    -22.521282
   2.73622    -22.524557    -22.521281
   2.75171    -22.524556    -22.521281
   2.76720    -22.524555    -22.521279
   2.78269    -22.524554    -22.521278
   2.79818    -22.524552    -22.521277
   2.81367    -22.524551    -22.521276
   2.82917    -22.524550    -22.521275
   2.84466    -22.524548    -22.521273
   2.86015    -22.524546    -22.521271
   2.87564    -22.524544    -22.521269
   2.89113    -22.524542    -22.521267
   2.90662    -22.524539    -22.521264
   2.92211    -22.524536    -22.521261
   2.93760    -22.524534    -22.521259
   2.95309    -22.524532    -22.521257
   2.96858    -22.524530    -22.521254
   2.98408    -22.524528    -22.521253
   2.99957    -22.524527    -22.521252
   3.01506    -22.524525    -22.521250
   3.03055    -22.524524    -22.521249
   3.04604    -22.524523    -22.521248
   3.06153    -22.524522    -22.521247
   3.07702    -22.524521    -22.521246
   3.09251    -22.524521    -22.521246
   3.10800    -22.524521    -22.521246
   3.12349    -22.524522    -22.521247
   3.13899    -22.524523    -22.521248
   3.15448    -22.524524    -22.521249
   3.16997    -22.524526    -22.521251
   3.18546    -22.524528    -22.521253
   3.20095    -22.524531    -22.521256
   3.20095    -22.524531    -22.521256
   3.21672    -22.524534    -22.521259
   3.23249    -22.524538    -22.521263
   3.24826    -22.524543    -22.521267
   3.26403    -22.524548    -22.521273
   3.27980    -22.524554    -22.521278
   3.29557    -22.524560    -22.521285
   3.31134    -22.524567    -22.521291
   3.32711    -22.524575    -22.521299
   3.34288    -22.524582    -22.521306
   3.35866    -22.524590    -22.521313
   3.37443    -22.524598    -22.521321
   3.39020    -22.524607    -22.521330
   3.40597    -22.524616    -22.521339
   3.42174    -22.524625    -22.521348
   3.43751    -22.524635    -22.521357
   3.45328    -22.524644    -22.521366
   3.46905    -22.524653    -22.521375
   3.48482    -22.524662    -22.521383
   3.50059    -22.524671    -22.521392
   3.51636    -22.524679    -22.521400
   3.53213    -22.524687    -22.521408
   3.54790    -22.524695    -22.521415
   3.56367    -22.524702    -22.521423
   3.57944    -22.524709    -22.521430
   3.59521    -22.524716    -22.521436
   3.61098    -22.524722    -22.521442
   3.62675    -22.524727    -22.521446
   3.64253    -22.524730    -22.521450
   3.65830    -22.524732    -22.521452
   3.67407    -22.524734    -22.521453
   3.68984    -22.524735    -22.521455
   3.70561    -22.524735    -22.521455
   3.70561    -22.524557    -22.521282
   3.72100    -22.524557    -22.521282
   3.73639    -22.524558    -22.521282
   3.75178    -22.524558    -22.521282
   3.76717    -22.524558    -22.521283
   3.78256    -22.524559    -22.521283
   3.79795    -22.524560    -22.521284
   3.81334    -22.524561    -22.521286
   3.82873    -22.524563    -22.521288
   3.84412    -22.524565    -22.521289
   3.85951    -22.524567    -22.521291
   3.87490    -22.524569    -22.521293
   3.89029    -22.524571    -22.521295
   3.90568    -22.524573    -22.521297
   3.92107    -22.524575    -22.521299
   3.93646    -22.524577    -22.521301
   3.95186    -22.524579    -22.521303
   3.96725    -22.524581    -22.521305
   3.98264    -22.524583    -22.521307
   3.99803    -22.524585    -22.521308
   4.01342    -22.524586    -22.521310
   4.02881    -22.524588    -22.521311
   4.04420    -22.524589    -22.521312
   4.05959    -22.524589    -22.521312
   4.07498    -22.524589    -22.521312
   4.09037    -22.524588    -22.521312
   4.10576    -22.524588    -22.521311
   4.12115    -22.524587    -22.521310
   4.13654    -22.524586    -22.521309
   4.15193    -22.524585    -22.521308
   4.16732    -22.524583    -22.521307
   4.18271    -22.524582    -22.521306
   4.19810    -22.524581    -22.521304
   4.21349    -22.524578    -22.521302
   4.22888    -22.524576    -22.521300
   4.24427    -22.524573    -22.521297
   4.25966    -22.524570    -22.521294
   4.27506    -22.524566    -22.521291
   4.29045    -22.524563    -22.521287
   4.30584    -22.524559    -22.521283
   4.32123    -22.524555    -22.521280
   4.33662    -22.524552    -22.521276
   4.35201    -22.524548    -22.521273
   4.36740    -22.524545    -22.521270
   4.38279    -22.524542    -22.521267
   4.39818    -22.524539    -22.521263
   4.41357    -22.524536    -22.521261
   4.42896    -22.524532    -22.521257
   4.44435    -22.524529    -22.521254
   4.45974    -22.524525    -22.521250
   4.47513    -22.524522    -22.521247
   4.49052    -22.524519    -22.521244
   4.50591    -22.524517    -22.521242
   4.52130    -22.524515    -22.521240
   4.53669    -22.524513    -22.521238
   4.55208    -22.524511    -22.521236
   4.56747    -22.524509    -22.521235
   4.58286    -22.524508    -22.521233
   4.59826    -22.524506    -22.521232
   4.61365    -22.524504    -22.521230
   4.62904    -22.524502    -22.521228
   4.64443    -22.524501    -22.521226
   4.65982    -22.524501    -22.521226
   4.67521    -22.524500    -22.521225
   4.69060    -22.524498    -22.521224
   4.70599    -22.524498    -22.521223
   4.70599    -22.524498    -22.521223
   4.72138    -22.524498    -22.521224
   4.73677    -22.524500    -22.521225
   4.75216    -22.524501    -22.521226
   4.76755    -22.524501    -22.521226
   4.78294    -22.524502    -22.521228
   4.79833    -22.524504    -22.521230
   4.81372    -22.524506    -22.521232
   4.82911    -22.524507    -22.521233
   4.84450    -22.524509    -22.521235
   4.85989    -22.524511    -22.521236
   4.87528    -22.524513    -22.521238
   4.89067    -22.524515    -22.521240
   4.90606    -22.524517    -22.521242
   4.92145    -22.524519    -22.521244
   4.93684    -22.524522    -22.521247
   4.95223    -22.524525    -22.521250
   4.96762    -22.524529    -22.521254
   4.98301    -22.524532    -22.521257
   4.99840    -22.524536    -22.521260
   5.01379    -22.524538    -22.521263
   5.02919    -22.524542    -22.521266
   5.04458    -22.524545    -22.521270
   5.05997    -22.524548    -22.521273
   5.07536    -22.524552    -22.521276
   5.09075    -22.524555    -22.521280
   5.10614    -22.524559    -22.521283
   5.12153    -22.524563    -22.521287
   5.13692    -22.524566    -22.521291
   5.15231    -22.524570    -22.521294
   5.16770    -22.524573    -22.521297
   5.18309    -22.524576    -22.521300
   5.19848    -22.524578    -22.521302
   5.21387    -22.524580    -22.521304
   5.22926    -22.524582    -22.521306
   5.24465    -22.524583    -22.521307
   5.26004    -22.524585    -22.521308
   5.27543    -22.524586    -22.521309
   5.29082    -22.524587    -22.521310
   5.30621    -22.524588    -22.521311
   5.32160    -22.524588    -22.521312
   5.33699    -22.524588    -22.521312
   5.35238    -22.524589    -22.521312
   5.36777    -22.524589    -22.521312
   5.38316    -22.524588    -22.521311
   5.39855    -22.524586    -22.521310
   5.41394    -22.524585    -22.521308
   5.42933    -22.524583    -22.521307
   5.44472    -22.524581    -22.521305
   5.46011    -22.524579    -22.521303
   5.47550    -22.524577    -22.521301
   5.49089    -22.524575    -22.521299
   5.50628    -22.524573    -22.521297
   5.52167    -22.524571    -22.521295
   5.53707    -22.524569    -22.521293
   5.55246    -22.524567    -22.521291
   5.56785    -22.524565    -22.521289
   5.58324    -22.524563    -22.521288
   5.59863    -22.524561    -22.521286
   5.61402    -22.524560    -22.521285
   5.62941    -22.524559    -22.521283
   5.64480    -22.524558    -22.521283
   5.66019    -22.524558    -22.521282
   5.67558    -22.524558    -22.521282
   5.69097    -22.524557    -22.521282
   5.70636    -22.524557    -22.521282
   5.70636    -22.524498    -22.521223
   5.72169    -22.524498    -22.521224
   5.73703    -22.524499    -22.521225
   5.75237    -22.524500    -22.521226
   5.76770    -22.524501    -22.521226
   5.78304    -22.524502    -22.521227
   5.79837    -22.524503    -22.521229
   5.81371    -22.524504    -22.521230
   5.82905    -22.524506    -22.521231
   5.84438    -22.524507    -22.521232
   5.85972    -22.524508    -22.521233
   5.87505    -22.524510    -22.521236
   5.89039    -22.524513    -22.521238
   5.90573    -22.524515    -22.521240
   5.92106    -22.524518    -22.521243
   5.93640    -22.524521    -22.521246
   5.95173    -22.524525    -22.521250
   5.96707    -22.524528    -22.521253
   5.98241    -22.524532    -22.521256
   5.99774    -22.524535    -22.521260
   6.01308    -22.524539    -22.521264
   6.02841    -22.524544    -22.521269
   6.04375    -22.524549    -22.521273
   6.05908    -22.524554    -22.521278
   6.07442    -22.524560    -22.521284
   6.08976    -22.524566    -22.521290
   6.10509    -22.524573    -22.521297
   6.12043    -22.524579    -22.521303
   6.13576    -22.524586    -22.521309
   6.15110    -22.524592    -22.521315
   6.16644    -22.524598    -22.521321
   6.18177    -22.524604    -22.521327
   6.19711    -22.524609    -22.521332
   6.21244    -22.524615    -22.521338
   6.22778    -22.524622    -22.521344
   6.24312    -22.524628    -22.521351
   6.25845    -22.524634    -22.521356
   6.27379    -22.524640    -22.521362
   6.28912    -22.524645    -22.521367
   6.30446    -22.524649    -22.521371
   6.31980    -22.524653    -22.521374
   6.33513    -22.524656    -22.521378
   6.35047    -22.524659    -22.521381
   6.36580    -22.524663    -22.521384
   6.38114    -22.524665    -22.521387
   6.39648    -22.524667    -22.521388
   6.41181    -22.524669    -22.521390
   6.42715    -22.524670    -22.521391
   6.44248    -22.524671    -22.521392
   6.45782    -22.524671    -22.521392
   6.47315    -22.524670    -22.521392
   6.48849    -22.524670    -22.521391
   6.50383    -22.524668    -22.521389
   6.51916    -22.524665    -22.521387
   6.53450    -22.524662    -22.521384
   6.54983    -22.524659    -22.521380
   6.56517    -22.524656    -22.521378
   6.58051    -22.524652    -22.521373
   6.59584    -22.524647    -22.521369
   6.61118    -22.524643    -22.521365
   6.62651    -22.524637    -22.521359
   6.64185    -22.524631    -22.521354
   6.65719    -22.524625    -22.521348
   6.67252    -22.524620    -22.521343
   6.68786    -22.524614    -22.521337
   6.70319    -22.524608    -22.521331
   6.71853    -22.524602    -22.521325
   6.73387    -22.524595    -22.521319
   6.74920    -22.524589    -22.521313
   6.76454    -22.524583    -22.521307
   6.77987    -22.524576    -22.521300
   6.79521    -22.524570    -22.521294
   6.81055    -22.524564    -22.521288
   6.82588    -22.524557    -22.521281
   6.84122    -22.524551    -22.521275
   6.85655    -22.524545    -22.521269
   6.87189    -22.524539    -22.521264
   6.88722    -22.524535    -22.521259
   6.90256    -22.524530    -22.521255
   6.91790    -22.524527    -22.521252
   6.93323    -22.524523    -22.521248
   6.94857    -22.524519    -22.521245
   6.96390    -22.524516    -22.521241
   6.97924    -22.524514    -22.521239
   6.99458    -22.524512    -22.521237
   7.00991    -22.524510    -22.521235
   7.02525    -22.524509    -22.521234
   7.04058    -22.524508    -22.521233
   7.05592    -22.524507    -22.521232
 
# Band-Index    2
   7.05592    -22.516296    -22.513033
   7.04058    -22.516296    -22.513034
   7.02525    -22.516296    -22.513034
   7.00991    -22.516294    -22.513032
   6.99458    -22.516292    -22.513030
   6.97924    -22.516288    -22.513026
   6.96390    -22.516283    -22.513022
   6.94857    -22.516278    -22.513016
   6.93323    -22.516271    -22.513010
   6.91790    -22.516264    -22.513003
   6.90256    -22.516255    -22.512995
   6.88722    -22.516247    -22.512987
   6.87189    -22.516239    -22.512979
   6.85655    -22.516231    -22.512971
   6.84122    -22.516223    -22.512963
   6.82588    -22.516214    -22.512954
   6.81055    -22.516205    -22.512946
   6.79521    -22.516195    -22.512937
   6.77987    -22.516186    -22.512927
   6.76454    -22.516177    -22.512918
   6.74920    -22.516167    -22.512909
   6.73387    -22.516158    -22.512900
   6.71853    -22.516150    -22.512892
   6.70319    -22.516141    -22.512884
   6.68786    -22.516134    -22.512877
   6.67252    -22.516129    -22.512872
   6.65719    -22.516124    -22.512867
   6.64185    -22.516118    -22.512861
   6.62651    -22.516114    -22.512857
   6.61118    -22.516110    -22.512853
   6.59584    -22.516107    -22.512850
   6.58051    -22.516104    -22.512848
   6.56517    -22.516103    -22.512846
   6.54983    -22.516101    -22.512844
   6.53450    -22.516101    -22.512845
   6.51916    -22.516101    -22.512845
   6.50383    -22.516102    -22.512846
   6.48849    -22.516103    -22.512847
   6.47315    -22.516104    -22.512847
   6.45782    -22.516106    -22.512849
   6.44248    -22.516107    -22.512850
   6.42715    -22.516108    -22.512851
   6.41181    -22.516111    -22.512854
   6.39648    -22.516112    -22.512855
   6.38114    -22.516115    -22.512858
