#K-Path(1/A)         Spin-Up(eV)   Spin-down(eV)
# NKPTS & NBANDS: 258  80
# Band-Index    1
   0.00000    -20.631280    -20.629822
   0.01558    -20.631258    -20.629801
   0.03116    -20.631191    -20.629735
   0.04674    -20.631081    -20.629626
   0.06232    -20.630927    -20.629474
   0.07790    -20.630731    -20.629280
   0.09348    -20.630494    -20.629046
   0.10906    -20.630218    -20.628772
   0.12464    -20.629904    -20.628462
   0.14022    -20.629555    -20.628117
   0.15580    -20.629173    -20.627739
   0.17138    -20.628760    -20.627332
   0.18696    -20.628320    -20.626897
   0.20254    -20.627856    -20.626437
   0.21812    -20.627370    -20.625957
   0.23370    -20.626866    -20.625458
   0.24928    -20.626346    -20.624945
   0.26486    -20.625815    -20.624420
   0.28044    -20.625277    -20.623888
   0.29602    -20.624734    -20.623352
   0.31160    -20.624191    -20.622815
   0.32718    -20.623652    -20.622282
   0.34276    -20.623121    -20.621757
   0.35834    -20.622600    -20.621242
   0.37392    -20.622093    -20.620741
   0.38950    -20.621604    -20.620258
   0.40508    -20.621136    -20.619796
   0.42066    -20.620693    -20.619358
   0.43624    -20.620277    -20.618947
   0.45182    -20.619891    -20.618566
   0.46740    -20.619539    -20.618217
   0.48298    -20.619222    -20.617904
   0.49856    -20.618943    -20.617628
   0.51414    -20.618703    -20.617391
   0.52972    -20.618504    -20.617195
   0.54530    -20.618348    -20.617041
   0.56088    -20.618236    -20.616930
   0.57646    -20.618168    -20.616863
   0.59204    -20.618145    -20.616840
   0.59204    -20.618145    -20.616840
   0.60849    -20.618117    -20.616813
   0.62493    -20.618032    -20.616732
   0.64138    -20.617892    -20.616598
   0.65782    -20.617697    -20.616411
   0.67427    -20.617448    -20.616172
   0.69072    -20.617148    -20.615884
   0.70716    -20.616797    -20.615549
   0.72361    -20.616400    -20.615168
   0.74005    -20.615958    -20.614744
   0.75650    -20.615474    -20.614280
   0.77295    -20.614951    -20.613780
   0.78939    -20.614394    -20.613246
   0.80584    -20.613806    -20.612683
   0.82228    -20.613190    -20.612093
   0.83873    -20.612551    -20.611481
   0.85518    -20.611894    -20.610852
   0.87162    -20.611223    -20.610210
   0.88807    -20.610544    -20.609559
   0.90451    -20.609860    -20.608906
   0.90451    -20.609860    -20.608906
   0.92046    -20.609858    -20.608904
   0.93640    -20.609854    -20.608900
   0.95235    -20.609846    -20.608893
   0.96829    -20.609835    -20.608883
   0.98424    -20.609822    -20.608872
   1.00018    -20.609805    -20.608856
   1.01613    -20.609784    -20.608838
   1.03207    -20.609760    -20.608816
   1.04801    -20.609731    -20.608790
   1.06396    -20.609698    -20.608760
   1.07990    -20.609660    -20.608726
   1.09585    -20.609616    -20.608686
   1.11179    -20.609566    -20.608641
   1.12774    -20.609510    -20.608589
   1.14368    -20.609449    -20.608533
   1.15962    -20.609380    -20.608470
   1.17557    -20.609306    -20.608400
   1.19151    -20.609225    -20.608325
   1.20746    -20.609137    -20.608244
   1.22340    -20.609045    -20.608157
   1.23935    -20.608949    -20.608067
   1.25529    -20.608851    -20.607975
   1.27123    -20.608755    -20.607885
   1.28718    -20.608666    -20.607800
   1.30312    -20.608590    -20.607729
   1.31907    -20.608539    -20.607681
   1.33501    -20.608521    -20.607663
   1.33501    -20.608521    -20.607663
   1.35065    -20.608953    -20.608094
   1.36629    -20.609744    -20.608870
   1.38193    -20.610615    -20.609721
   1.39757    -20.611518    -20.610603
   1.41322    -20.612441    -20.611503
   1.42886    -20.613376    -20.612415
   1.44450    -20.614319    -20.613334
   1.46014    -20.615266    -20.614256
   1.47578    -20.616215    -20.615180
   1.49142    -20.617161    -20.616101
   1.50706    -20.618102    -20.617016
   1.52270    -20.619034    -20.617923
   1.53834    -20.619955    -20.618818
   1.55398    -20.620860    -20.619698
   1.56962    -20.621747    -20.620561
   1.58526    -20.622613    -20.621402
   1.60090    -20.623453    -20.622219
   1.61654    -20.624266    -20.623009
   1.63218    -20.625048    -20.623769
   1.64783    -20.625795    -20.624495
   1.66347    -20.626505    -20.625185
   1.67911    -20.627175    -20.625836
   1.69475    -20.627802    -20.626445
   1.71039    -20.628384    -20.627010
   1.72603    -20.628918    -20.627529
   1.74167    -20.629403    -20.628000
   1.75731    -20.629835    -20.628420
   1.77295    -20.630214    -20.628787
   1.78859    -20.630537    -20.629101
   1.80423    -20.630803    -20.629359
   1.81987    -20.631011    -20.629562
   1.83551    -20.631160    -20.629707
   1.85115    -20.631250    -20.629794
   1.86680    -20.631280    -20.629822
   1.86680    -20.631280    -20.629822
   1.88242    -20.631247    -20.629791
   1.89804    -20.631147    -20.629695
   1.91367    -20.630982    -20.629535
   1.92929    -20.630752    -20.629313
   1.94491    -20.630458    -20.629029
   1.96054    -20.630103    -20.628686
   1.97616    -20.629688    -20.628286
   1.99178    -20.629216    -20.627830
   2.00741    -20.628690    -20.627322
   2.02303    -20.628113    -20.626765
   2.03866    -20.627489    -20.626162
   2.05428    -20.626820    -20.625516
   2.06990    -20.626112    -20.624833
   2.08553    -20.625369    -20.624115
   2.10115    -20.624594    -20.623367
   2.11677    -20.623794    -20.622594
   2.13240    -20.622971    -20.621800
   2.14802    -20.622133    -20.620991
   2.16365    -20.621283    -20.620170
   2.17927    -20.620427    -20.619344
   2.19489    -20.619571    -20.618518
   2.21052    -20.618719    -20.617696
   2.22614    -20.617877    -20.616884
   2.24176    -20.617050    -20.616086
   2.25739    -20.616243    -20.615307
   2.27301    -20.615462    -20.614553
   2.28863    -20.614710    -20.613828
   2.30426    -20.613994    -20.613136
   2.31988    -20.613316    -20.612483
   2.33551    -20.612682    -20.611871
   2.35113    -20.612095    -20.611306
   2.36675    -20.611560    -20.610789
   2.38238    -20.611079    -20.610326
   2.39800    -20.610656    -20.609918
   2.41362    -20.610293    -20.609568
   2.42925    -20.609992    -20.609278
   2.44487    -20.609755    -20.609050
   2.46050    -20.609585    -20.608886
   2.47612    -20.609483    -20.608787
   2.49174    -20.609447    -20.608754
   2.49174    -20.609447    -20.608754
   2.50866    -20.609429    -20.608736
   2.52558    -20.609374    -20.608681
   2.54250    -20.609283    -20.608591
   2.55941    -20.609156    -20.608464
   2.57633    -20.608993    -20.608303
   2.59325    -20.608796    -20.608107
   2.61017    -20.608566    -20.607879
   2.62708    -20.608305    -20.607620
   2.64400    -20.608015    -20.607332
   2.66092    -20.607699    -20.607019
   2.67784    -20.607361    -20.606684
   2.69476    -20.607012    -20.606338
   2.71167    -20.606682    -20.606006
   2.72859    -20.606527    -20.605825
   2.72859    -20.606552    -20.605850
   2.74417    -20.606837    -20.606087
   2.75974    -20.607374    -20.606595
   2.77532    -20.607994    -20.607192
   2.79090    -20.608659    -20.607834
   2.80647    -20.609357    -20.608510
   2.82205    -20.610084    -20.609215
   2.83763    -20.610837    -20.609944
   2.85320    -20.611611    -20.610695
   2.86878    -20.612405    -20.611465
   2.88436    -20.613216    -20.612252
   2.89993    -20.614042    -20.613054
   2.91551    -20.614880    -20.613867
   2.93109    -20.615727    -20.614689
   2.94666    -20.616579    -20.615518
   2.96224    -20.617436    -20.616350
   2.97782    -20.618293    -20.617183
   2.99339    -20.619147    -20.618013
   3.00897    -20.619996    -20.618838
   3.02455    -20.620835    -20.619654
   3.04012    -20.621663    -20.620459
   3.05570    -20.622475    -20.621249
   3.07128    -20.623269    -20.622022
   3.08685    -20.624041    -20.622773
   3.10243    -20.624789    -20.623501
   3.11800    -20.625509    -20.624202
   3.13358    -20.626198    -20.624873
   3.14916    -20.626853    -20.625511
   3.16473    -20.627473    -20.626114
   3.18031    -20.628053    -20.626679
   3.19589    -20.628592    -20.627204
   3.21146    -20.629088    -20.627687
   3.22704    -20.629537    -20.628125
   3.24262    -20.629938    -20.628515
   3.25819    -20.630290    -20.628858
   3.27377    -20.630590    -20.629150
   3.28935    -20.630837    -20.629391
   3.30492    -20.631030    -20.629579
   3.32050    -20.631169    -20.629714
   3.33608    -20.631252    -20.629796
   3.35165    -20.631280    -20.629822
   3.35165    -20.618145    -20.616840
   3.36815    -20.618117    -20.616813
   3.38465    -20.618032    -20.616732
   3.40114    -20.617891    -20.616597
   3.41764    -20.617696    -20.616410
   3.43413    -20.617447    -20.616171
   3.45063    -20.617146    -20.615883
   3.46713    -20.616795    -20.615547
   3.48362    -20.616397    -20.615165
   3.50012    -20.615954    -20.614741
   3.51662    -20.615470    -20.614277
   3.53311    -20.614947    -20.613776
   3.54961    -20.614389    -20.613242
   3.56610    -20.613801    -20.612679
   3.58260    -20.613185    -20.612089
   3.59910    -20.612547    -20.611478
   3.61559    -20.611891    -20.610850
   3.63209    -20.611220    -20.610208
   3.63209    -20.606357    -20.605699
   3.64840    -20.606107    -20.605454
   3.66470    -20.605988    -20.605339
   3.68101    -20.606087    -20.605437
   3.69732    -20.606327    -20.605673
   3.71362    -20.606616    -20.605958
   3.72993    -20.606918    -20.606256
   3.74624    -20.607220    -20.606554
   3.76254    -20.607514    -20.606845
   3.77885    -20.607796    -20.607124
   3.79516    -20.608064    -20.607388
   3.81146    -20.608313    -20.607633
   3.82777    -20.608541    -20.607859
   3.84408    -20.608747    -20.608063
   3.86038    -20.608930    -20.608243
   3.87669    -20.609086    -20.608397
   3.89300    -20.609216    -20.608525
   3.90930    -20.609317    -20.608625
   3.92561    -20.609390    -20.608697
   3.94192    -20.609433    -20.608740
   3.95822    -20.609447    -20.608754
 
# Band-Index    2
   3.95822    -20.601493    -20.600894
   3.94192    -20.601508    -20.600910
   3.92561    -20.601554    -20.600954
   3.90930    -20.601628    -20.601028
   3.89300    -20.601732    -20.601130
   3.87669    -20.601863    -20.601260
   3.86038    -20.602022    -20.601417
   3.84408    -20.602207    -20.601600
   3.82777    -20.602416    -20.601806
   3.81146    -20.602647    -20.602034
   3.79516    -20.602898    -20.602282
   3.77885    -20.603168    -20.602548
   3.76254    -20.603453    -20.602830
   3.74624    -20.603750    -20.603123
   3.72993    -20.604055    -20.603423
   3.71362    -20.604360    -20.603723
   3.69732    -20.604652    -20.604011
   3.68101    -20.604893    -20.604248
   3.66470    -20.604994    -20.604347
   3.64840    -20.604877    -20.604233
   3.63209    -20.604629    -20.603989
   3.63209    -20.602749    -20.602108
   3.61559    -20.602285    -20.601648
   3.59910    -20.601829    -20.601196
   3.58260    -20.601385    -20.600756
   3.56610    -20.600956    -20.600331
   3.54961    -20.600546    -20.599924
   3.53311    -20.600157    -20.599539
   3.51662    -20.599792    -20.599177
   3.50012    -20.599453    -20.598841
   3.48362    -20.599143    -20.598534
   3.46713    -20.598864    -20.598258
   3.45063    -20.598619    -20.598014
   3.43413    -20.598408    -20.597805
   3.41764    -20.598233    -20.597632
   3.40114    -20.598095    -20.597495
   3.38465    -20.597997    -20.597397
   3.36815    -20.597937    -20.597338
   3.35165    -20.597917    -20.597319
   3.35165    -20.593285    -20.592690
   3.33608    -20.593296    -20.592700
   3.32050    -20.593327    -20.592732
   3.30492    -20.593380    -20.592784
   3.28935    -20.593452    -20.592857
   3.27377    -20.593546    -20.592950
   3.25819    -20.593660    -20.593064
   3.24262    -20.593794    -20.593198
   3.22704    -20.593949    -20.593353
   3.21146    -20.594124    -20.593528
   3.19589    -20.594319    -20.593722
   3.18031    -20.594534    -20.593937
   3.16473    -20.594769    -20.594171
   3.14916    -20.595022    -20.594424
   3.13358    -20.595295    -20.594696
   3.11800    -20.595586    -20.594986
   3.10243    -20.595895    -20.595294
   3.08685    -20.596222    -20.595620
   3.07128    -20.596565    -20.595962
   3.05570    -20.596924    -20.596319
   3.04012    -20.597298    -20.596692
   3.02455    -20.597687    -20.597079
   3.00897    -20.598088    -20.597479
   2.99339    -20.598503    -20.597891
   2.97782    -20.598929    -20.598314
   2.96224    -20.599364    -20.598748
   2.94666    -20.599809    -20.599189
   2.93109    -20.600261    -20.599639
   2.91551    -20.600719    -20.600094
   2.89993    -20.601181    -20.600553
   2.88436    -20.601647    -20.601015
   2.86878    -20.602113    -20.601478
   2.85320    -20.602579    -20.601940
   2.83763    -20.603041    -20.602399
   2.82205    -20.603499    -20.602853
   2.80647    -20.603950    -20.603300
   2.79090    -20.604389    -20.603735
   2.77532    -20.604813    -20.604154
   2.75974    -20.605209    -20.604543
   2.74417    -20.605539    -20.604860
   2.72859    -20.605635    -20.604923
   2.72859    -20.605610    -20.604902
   2.71167    -20.605271    -20.604552
   2.69476    -20.604775    -20.604069
   2.67784    -20.604278    -20.603588
   2.66092    -20.603810    -20.603135
   2.64400    -20.603379    -20.602718
   2.62708    -20.602989    -20.602341
   2.61017    -20.602642    -20.602005
   2.59325    -20.602339    -20.601713
   2.57633    -20.602082    -20.601464
   2.55941    -20.601871    -20.601260
   2.54250    -20.601706    -20.601101
   2.52558    -20.601588    -20.600986
   2.50866    -20.601517    -20.600918
   2.49174    -20.601493    -20.600894
   2.49174    -20.601493    -20.600894
   2.47612    -20.601481    -20.600882
   2.46050    -20.601444    -20.600845
   2.44487    -20.601383    -20.600784
   2.42925    -20.601296    -20.600697
   2.41362    -20.601185    -20.600586
   2.39800    -20.601051    -20.600452
   2.38238    -20.600894    -20.600295
   2.36675    -20.600716    -20.600117
   2.35113    -20.600517    -20.599917
   2.33551    -20.600298    -20.599699
   2.31988    -20.600061    -20.599462
   2.30426    -20.599808    -20.599209
   2.28863    -20.599540    -20.598941
   2.27301    -20.599259    -20.598660
   2.25739    -20.598966    -20.598367
   2.24176    -20.598663    -20.598064
   2.22614    -20.598352    -20.597753
   2.21052    -20.598035    -20.597436
   2.19489    -20.597714    -20.597116
   2.17927    -20.597392    -20.596793
   2.16365    -20.597069    -20.596471
   2.14802    -20.596749    -20.596150
   2.13240    -20.596432    -20.595834
   2.11677    -20.596122    -20.595524
   2.10115    -20.595819    -20.595222
   2.08553    -20.595527    -20.594929
   2.06990    -20.595246    -20.594648
   2.05428    -20.594978    -20.594381
   2.03866    -20.594725    -20.594128
   2.02303    -20.594488    -20.593891
   2.00741    -20.594270    -20.593674
   1.99178    -20.594070    -20.593474
   1.97616    -20.593891    -20.593295
   1.96054    -20.593734    -20.593137
   1.94491    -20.593598    -20.593003
   1.92929    -20.593487    -20.592891
   1.91367    -20.593399    -20.592803
   1.89804    -20.593336    -20.592740
   1.88242    -20.593298    -20.592702
   1.86680    -20.593285    -20.592690
   1.86680    -20.593285    -20.592690
   1.85115    -20.593297    -20.592701
   1.83551    -20.593330    -20.592734
   1.81987    -20.593386    -20.592790
   1.80423    -20.593464    -20.592869
   1.78859    -20.593565    -20.592969
   1.77295    -20.593689    -20.593093
   1.75731    -20.593836    -20.593240
   1.74167    -20.594007    -20.593411
   1.72603    -20.594202    -20.593605
   1.71039    -20.594421    -20.593823
   1.69475    -20.594665    -20.594066
   1.67911    -20.594935    -20.594335
   1.66347    -20.595231    -20.594628
   1.64783    -20.595552    -20.594948
   1.63218    -20.595901    -20.595293
   1.61654    -20.596276    -20.595665
   1.60090    -20.596679    -20.596064
   1.58526    -20.597109    -20.596490
   1.56962    -20.597568    -20.596944
   1.55398    -20.598056    -20.597425
   1.53834    -20.598572    -20.597935
   1.52270    -20.599117    -20.598472
   1.50706    -20.599691    -20.599036
   1.49142    -20.600292    -20.599629
   1.47578    -20.600923    -20.600248
   1.46014    -20.601580    -20.600894
   1.44450    -20.602265    -20.601566
   1.42886    -20.602975    -20.602263
   1.41322    -20.603709    -20.602982
   1.39757    -20.604465    -20.603723
   1.38193    -20.605238    -20.604481
   1.36629    -20.606014    -20.605242
   1.35065    -20.606747    -20.605964
   1.33501    -20.607160    -20.606375
   1.33501    -20.607160    -20.606375
   1.31907    -20.607135    -20.606351
   1.30312    -20.607062    -20.606281
   1.28718    -20.606951    -20.606175
   1.27123    -20.606813    -20.606043
   1.25529    -20.606655    -20.605891
   1.23935    -20.606483    -20.605726
   1.22340    -20.606301    -20.605552
   1.20746    -20.606113    -20.605373
   1.19151    -20.605922    -20.605189
   1.17557    -20.605730    -20.605004
   1.15962    -20.605538    -20.604820
   1.14368    -20.605348    -20.604638
   1.12774    -20.605163    -20.604460
   1.11179    -20.604983    -20.604287
   1.09585    -20.604810    -20.604120
   1.07990    -20.604646    -20.603962
   1.06396    -20.604491    -20.603814
   1.04801    -20.604349    -20.603676
   1.03207    -20.604218    -20.603550
   1.01613    -20.604101    -20.603437
   1.00018    -20.603998    -20.603338
   0.98424    -20.603910    -20.603253
   0.96829    -20.603838    -20.603183
   0.95235    -20.603782    -20.603129
   0.93640    -20.603743    -20.603092
   0.92046    -20.603722    -20.603071
   0.90451    -20.603717    -20.603067
   0.90451    -20.603717    -20.603067
   0.88807    -20.603244    -20.602598
   0.87162    -20.602772    -20.602130
   0.85518    -20.602305    -20.601667
   0.83873    -20.601846    -20.601212
   0.82228    -20.601399    -20.600770
   0.80584    -20.600969    -20.600343
   0.78939    -20.600556    -20.599934
   0.77295    -20.600165    -20.599547
   0.75650    -20.599799    -20.599183
   0.74005    -20.599459    -20.598846
   0.72361    -20.599148    -20.598538
   0.70716    -20.598868    -20.598261
   0.69072    -20.598621    -20.598016
   0.67427    -20.598409    -20.597806
   0.65782    -20.598234    -20.597633
   0.64138    -20.598096    -20.597496
   0.62493    -20.597997    -20.597398
   0.60849    -20.597937    -20.597339
   0.59204    -20.597917    -20.597319
   0.59204    -20.597917    -20.597319
   0.57646    -20.597909    -20.597311
   0.56088    -20.597886    -20.597287
   0.54530    -20.597846    -20.597248
   0.52972    -20.597792    -20.597193
   0.51414    -20.597722    -20.597124
   0.49856    -20.597639    -20.597040
   0.48298    -20.597541    -20.596943
   0.46740    -20.597430    -20.596831
   0.45182    -20.597306    -20.596708
   0.43624    -20.597170    -20.596572
   0.42066    -20.597024    -20.596426
   0.40508    -20.596868    -20.596270
   0.38950    -20.596704    -20.596106
   0.37392    -20.596532    -20.595934
   0.35834    -20.596354    -20.595756
   0.34276    -20.596171    -20.595573
   0.32718    -20.595984    -20.595387
   0.31160    -20.595794    -20.595197
   0.29602    -20.595603    -20.595006
   0.28044    -20.595412    -20.594815
   0.26486    -20.595222    -20.594625
   0.24928    -20.595034    -20.594437
   0.23370    -20.594850    -20.594254
   0.21812    -20.594672    -20.594076
   0.20254    -20.594500    -20.593904
   0.18696    -20.594336    -20.593739
   0.17138    -20.594180    -20.593584
   0.15580    -20.594034    -20.593438
   0.14022    -20.593899    -20.593303
   0.12464    -20.593775    -20.593180
   0.10906    -20.593664    -20.593068
