#K-Path(1/A)         Spin-Up(eV)   Spin-down(eV)
# NKPTS & NBANDS: 262 128
# Band-Index    1
   0.00000    -26.913290    -26.913235
   0.01570    -26.913288    -26.913233
   0.03141    -26.913283    -26.913228
   0.04711    -26.913274    -26.913219
   0.06281    -26.913262    -26.913208
   0.07852    -26.913247    -26.913193
   0.09422    -26.913229    -26.913175
   0.10992    -26.913209    -26.913154
   0.12563    -26.913185    -26.913130
   0.14133    -26.913158    -26.913103
   0.15703    -26.913129    -26.913074
   0.17274    -26.913098    -26.913043
   0.18844    -26.913065    -26.913010
   0.20414    -26.913031    -26.912976
   0.21985    -26.912995    -26.912941
   0.23555    -26.912959    -26.912904
   0.25125    -26.912921    -26.912867
   0.26695    -26.912883    -26.912829
   0.28266    -26.912845    -26.912790
   0.29836    -26.912807    -26.912752
   0.31406    -26.912769    -26.912714
   0.32977    -26.912732    -26.912677
   0.34547    -26.912696    -26.912641
   0.36117    -26.912661    -26.912607
   0.37688    -26.912628    -26.912574
   0.39258    -26.912598    -26.912543
   0.40828    -26.912569    -26.912515
   0.42399    -26.912543    -26.912488
   0.43969    -26.912519    -26.912464
   0.45539    -26.912498    -26.912443
   0.47110    -26.912479    -26.912425
   0.48680    -26.912464    -26.912410
   0.50250    -26.912452    -26.912398
   0.51821    -26.912444    -26.912389
   0.53391    -26.912438    -26.912384
   0.54961    -26.912436    -26.912382
   0.54961    -26.913235    -26.913180
   0.56559    -26.913235    -26.913180
   0.58157    -26.913236    -26.913181
   0.59756    -26.913237    -26.913182
   0.61354    -26.913239    -26.913184
   0.62952    -26.913240    -26.913185
   0.64550    -26.913241    -26.913187
   0.66148    -26.913243    -26.913188
   0.67746    -26.913245    -26.913190
   0.69344    -26.913247    -26.913192
   0.70942    -26.913249    -26.913195
   0.72540    -26.913252    -26.913197
   0.74138    -26.913255    -26.913200
   0.75737    -26.913258    -26.913203
   0.77335    -26.913260    -26.913206
   0.78933    -26.913263    -26.913208
   0.80531    -26.913265    -26.913210
   0.82129    -26.913267    -26.913213
   0.83727    -26.913270    -26.913215
   0.85325    -26.913273    -26.913218
   0.86923    -26.913276    -26.913221
   0.88521    -26.913279    -26.913224
   0.90119    -26.913281    -26.913226
   0.91718    -26.913283    -26.913228
   0.93316    -26.913285    -26.913230
   0.94914    -26.913286    -26.913231
   0.96512    -26.913287    -26.913232
   0.98110    -26.913288    -26.913233
   0.99708    -26.913289    -26.913234
   1.01306    -26.913289    -26.913235
   1.02904    -26.913290    -26.913235
   1.02904    -26.913290    -26.913235
   1.04529    -26.913290    -26.913235
   1.06155    -26.913289    -26.913235
   1.07780    -26.913290    -26.913235
   1.09405    -26.913290    -26.913235
   1.11031    -26.913290    -26.913235
   1.12656    -26.913290    -26.913235
   1.14281    -26.913290    -26.913235
   1.15907    -26.913289    -26.913235
   1.17532    -26.913289    -26.913234
   1.19157    -26.913289    -26.913234
   1.20783    -26.913289    -26.913234
   1.22408    -26.913288    -26.913234
   1.24033    -26.913288    -26.913234
   1.25659    -26.913288    -26.913234
   1.27284    -26.913288    -26.913234
   1.28909    -26.913288    -26.913234
   1.30534    -26.913288    -26.913234
   1.32160    -26.913288    -26.913233
   1.33785    -26.913288    -26.913233
   1.35410    -26.913288    -26.913233
   1.37036    -26.913288    -26.913234
   1.38661    -26.913288    -26.913233
   1.40286    -26.913288    -26.913233
   1.40286    -26.912403    -26.912348
   1.41820    -26.912403    -26.912349
   1.43353    -26.912406    -26.912352
   1.44886    -26.912411    -26.912356
   1.46419    -26.912417    -26.912362
   1.47953    -26.912425    -26.912370
   1.49486    -26.912434    -26.912379
   1.51019    -26.912445    -26.912390
   1.52552    -26.912458    -26.912403
   1.54086    -26.912472    -26.912418
   1.55619    -26.912488    -26.912434
   1.57152    -26.912506    -26.912451
   1.58685    -26.912525    -26.912470
   1.60219    -26.912545    -26.912490
   1.61752    -26.912566    -26.912512
   1.63285    -26.912588    -26.912534
   1.64818    -26.912612    -26.912557
   1.66351    -26.912636    -26.912581
   1.67885    -26.912661    -26.912607
   1.69418    -26.912687    -26.912633
   1.70951    -26.912714    -26.912659
   1.72484    -26.912741    -26.912687
   1.74018    -26.912769    -26.912715
   1.75551    -26.912798    -26.912743
   1.77084    -26.912826    -26.912771
   1.78617    -26.912854    -26.912799
   1.80151    -26.912882    -26.912828
   1.81684    -26.912910    -26.912856
   1.83217    -26.912938    -26.912884
   1.84750    -26.912966    -26.912911
   1.86284    -26.912993    -26.912939
   1.87817    -26.913020    -26.912966
   1.89350    -26.913046    -26.912992
   1.90883    -26.913071    -26.913017
   1.92417    -26.913095    -26.913041
   1.93950    -26.913119    -26.913064
   1.95483    -26.913141    -26.913086
   1.97016    -26.913162    -26.913107
   1.98550    -26.913181    -26.913127
   2.00083    -26.913200    -26.913145
   2.01616    -26.913216    -26.913162
   2.03149    -26.913231    -26.913177
   2.04683    -26.913245    -26.913190
   2.06216    -26.913256    -26.913202
   2.07749    -26.913266    -26.913212
   2.09282    -26.913275    -26.913220
   2.10816    -26.913281    -26.913227
   2.12349    -26.913286    -26.913231
   2.13882    -26.913289    -26.913234
   2.15415    -26.913290    -26.913235
   2.15415    -26.913290    -26.913235
   2.16961    -26.913289    -26.913235
   2.18507    -26.913289    -26.913234
   2.20052    -26.913288    -26.913234
   2.21598    -26.913288    -26.913233
   2.23143    -26.913286    -26.913232
   2.24689    -26.913285    -26.913231
   2.26234    -26.913284    -26.913229
   2.27780    -26.913282    -26.913228
   2.29326    -26.913281    -26.913226
   2.30871    -26.913278    -26.913224
   2.32417    -26.913276    -26.913221
   2.33962    -26.913274    -26.913219
   2.35508    -26.913271    -26.913217
   2.37053    -26.913269    -26.913214
   2.38599    -26.913267    -26.913212
   2.40145    -26.913264    -26.913209
   2.41690    -26.913262    -26.913207
   2.43236    -26.913259    -26.913204
   2.44781    -26.913256    -26.913202
   2.46327    -26.913254    -26.913199
   2.47872    -26.913252    -26.913197
   2.49418    -26.913249    -26.913195
   2.50964    -26.913247    -26.913192
   2.52509    -26.913245    -26.913190
   2.54055    -26.913243    -26.913188
   2.55600    -26.913241    -26.913187
   2.57146    -26.913240    -26.913185
   2.58692    -26.913239    -26.913184
   2.60237    -26.913237    -26.913183
   2.61783    -26.913237    -26.913182
   2.63328    -26.913237    -26.913182
   2.64874    -26.913236    -26.913182
   2.66419    -26.913236    -26.913182
   2.66419    -26.912436    -26.912382
   2.67984    -26.912438    -26.912383
   2.69548    -26.912441    -26.912387
   2.71112    -26.912448    -26.912393
   2.72676    -26.912457    -26.912402
   2.74241    -26.912468    -26.912414
   2.75805    -26.912483    -26.912428
   2.77369    -26.912499    -26.912444
   2.78933    -26.912517    -26.912463
   2.80497    -26.912538    -26.912484
   2.82062    -26.912561    -26.912506
   2.83626    -26.912586    -26.912531
   2.85190    -26.912612    -26.912558
   2.86754    -26.912640    -26.912586
   2.88319    -26.912669    -26.912615
   2.89883    -26.912699    -26.912645
   2.91447    -26.912731    -26.912676
   2.93011    -26.912763    -26.912708
   2.94576    -26.912795    -26.912741
   2.96140    -26.912829    -26.912774
   2.97704    -26.912863    -26.912808
   2.99268    -26.912896    -26.912842
   3.00833    -26.912930    -26.912875
   3.02397    -26.912962    -26.912908
   3.03961    -26.912994    -26.912940
   3.05525    -26.913026    -26.912971
   3.07089    -26.913056    -26.913002
   3.08654    -26.913086    -26.913031
   3.10218    -26.913114    -26.913059
   3.11782    -26.913140    -26.913085
   3.13346    -26.913165    -26.913110
   3.14911    -26.913188    -26.913133
   3.16475    -26.913209    -26.913154
   3.18039    -26.913227    -26.913173
   3.19603    -26.913243    -26.913189
   3.21168    -26.913257    -26.913203
   3.22732    -26.913269    -26.913214
   3.24296    -26.913278    -26.913223
   3.25860    -26.913284    -26.913230
   3.27424    -26.913288    -26.913234
   3.28989    -26.913290    -26.913235
   3.28989    -26.913290    -26.913235
   3.30527    -26.913288    -26.913234
   3.32066    -26.913285    -26.913231
   3.33605    -26.913280    -26.913225
   3.35143    -26.913272    -26.913217
   3.36682    -26.913262    -26.913208
   3.38220    -26.913251    -26.913196
   3.39759    -26.913237    -26.913182
   3.41298    -26.913222    -26.913167
   3.42836    -26.913204    -26.913149
   3.44375    -26.913185    -26.913130
   3.45913    -26.913164    -26.913109
   3.47452    -26.913141    -26.913086
   3.48991    -26.913117    -26.913062
   3.50529    -26.913092    -26.913037
   3.52068    -26.913065    -26.913011
   3.53606    -26.913038    -26.912983
   3.55145    -26.913010    -26.912955
   3.56684    -26.912980    -26.912926
   3.58222    -26.912951    -26.912896
   3.59761    -26.912920    -26.912866
   3.61299    -26.912890    -26.912835
   3.62838    -26.912859    -26.912804
   3.64377    -26.912828    -26.912773
   3.65915    -26.912797    -26.912742
   3.67454    -26.912766    -26.912712
   3.68992    -26.912736    -26.912681
   3.70531    -26.912706    -26.912652
   3.72070    -26.912678    -26.912623
   3.73608    -26.912650    -26.912595
   3.75147    -26.912622    -26.912568
   3.76686    -26.912596    -26.912542
   3.78224    -26.912572    -26.912517
   3.79763    -26.912549    -26.912494
   3.81301    -26.912527    -26.912472
   3.82840    -26.912507    -26.912452
   3.84379    -26.912487    -26.912433
   3.85917    -26.912470    -26.912415
   3.87456    -26.912455    -26.912400
   3.88994    -26.912441    -26.912386
   3.90533    -26.912430    -26.912375
   3.92072    -26.912420    -26.912366
   3.93610    -26.912413    -26.912359
   3.95149    -26.912408    -26.912354
   3.96687    -26.912405    -26.912351
   3.98226    -26.912404    -26.912350
 
# Band-Index    2
   3.98226    -20.230454    -20.230479
   3.96687    -20.230510    -20.230535
   3.95149    -20.230676    -20.230700
   3.93610    -20.230944    -20.230968
   3.92072    -20.231305    -20.231329
   3.90533    -20.231749    -20.231773
   3.88994    -20.232264    -20.232289
   3.87456    -20.232842    -20.232867
   3.85917    -20.233474    -20.233499
   3.84379    -20.234153    -20.234178
   3.82840    -20.234873    -20.234898
   3.81301    -20.235629    -20.235654
   3.79763    -20.236416    -20.236441
   3.78224    -20.237231    -20.237255
   3.76686    -20.238069    -20.238094
   3.75147    -20.238927    -20.238952
   3.73608    -20.239803    -20.239828
   3.72070    -20.240692    -20.240717
   3.70531    -20.241591    -20.241616
   3.68992    -20.242496    -20.242522
   3.67454    -20.243406    -20.243431
   3.65915    -20.244315    -20.244341
   3.64377    -20.245221    -20.245247
   3.62838    -20.246121    -20.246147
   3.61299    -20.247011    -20.247036
   3.59761    -20.247887    -20.247913
   3.58222    -20.248746    -20.248772
   3.56684    -20.249586    -20.249612
   3.55145    -20.250402    -20.250428
   3.53606    -20.251190    -20.251217
   3.52068    -20.251949    -20.251976
   3.50529    -20.252675    -20.252701
   3.48991    -20.253365    -20.253391
   3.47452    -20.254015    -20.254042
   3.45913    -20.254625    -20.254651
   3.44375    -20.255190    -20.255217
   3.42836    -20.255709    -20.255736
   3.41298    -20.256180    -20.256207
   3.39759    -20.256600    -20.256627
   3.38220    -20.256968    -20.256995
   3.36682    -20.257282    -20.257308
   3.35143    -20.257540    -20.257567
   3.33605    -20.257742    -20.257769
   3.32066    -20.257887    -20.257914
   3.30527    -20.257974    -20.258001
   3.28989    -20.258003    -20.258030
   3.28989    -20.258003    -20.258030
   3.27424    -20.257979    -20.258006
   3.25860    -20.257909    -20.257935
   3.24296    -20.257791    -20.257817
   3.22732    -20.257626    -20.257653
   3.21168    -20.257415    -20.257441
   3.19603    -20.257158    -20.257185
   3.18039    -20.256856    -20.256883
   3.16475    -20.256511    -20.256537
   3.14911    -20.256122    -20.256148
   3.13346    -20.255692    -20.255718
   3.11782    -20.255222    -20.255248
   3.10218    -20.254714    -20.254740
   3.08654    -20.254168    -20.254194
   3.07089    -20.253588    -20.253614
   3.05525    -20.252975    -20.253000
   3.03961    -20.252330    -20.252356
   3.02397    -20.251657    -20.251683
   3.00833    -20.250959    -20.250984
   2.99268    -20.250236    -20.250261
   2.97704    -20.249494    -20.249518
   2.96140    -20.248733    -20.248758
   2.94576    -20.247959    -20.247983
   2.93011    -20.247174    -20.247198
   2.91447    -20.246381    -20.246405
   2.89883    -20.245586    -20.245610
   2.88319    -20.244793    -20.244816
   2.86754    -20.244006    -20.244029
   2.85190    -20.243231    -20.243254
   2.83626    -20.242474    -20.242496
   2.82062    -20.241740    -20.241763
   2.80497    -20.241038    -20.241061
   2.78933    -20.240375    -20.240397
   2.77369    -20.239759    -20.239781
   2.75805    -20.239198    -20.239220
   2.74241    -20.238702    -20.238724
   2.72676    -20.238280    -20.238302
   2.71112    -20.237941    -20.237963
   2.69548    -20.237693    -20.237714
   2.67984    -20.237541    -20.237562
   2.66419    -20.237490    -20.237511
   2.66419    -20.231088    -20.231114
   2.64874    -20.231441    -20.231467
   2.63328    -20.232302    -20.232327
   2.61783    -20.233400    -20.233425
   2.60237    -20.234600    -20.234626
   2.58692    -20.235846    -20.235872
   2.57146    -20.237110    -20.237135
   2.55600    -20.238377    -20.238402
   2.54055    -20.239636    -20.239662
   2.52509    -20.240882    -20.240908
   2.50964    -20.242109    -20.242134
   2.49418    -20.243311    -20.243337
   2.47872    -20.244487    -20.244513
   2.46327    -20.245631    -20.245656
   2.44781    -20.246740    -20.246766
   2.43236    -20.247811    -20.247837
   2.41690    -20.248842    -20.248868
   2.40145    -20.249829    -20.249855
   2.38599    -20.250770    -20.250796
   2.37053    -20.251662    -20.251689
   2.35508    -20.252504    -20.252530
   2.33962    -20.253292    -20.253318
   2.32417    -20.254025    -20.254051
   2.30871    -20.254700    -20.254727
   2.29326    -20.255317    -20.255344
   2.27780    -20.255873    -20.255900
   2.26234    -20.256368    -20.256394
   2.24689    -20.256798    -20.256825
   2.23143    -20.257165    -20.257192
   2.21598    -20.257466    -20.257493
   2.20052    -20.257701    -20.257727
   2.18507    -20.257869    -20.257895
   2.16961    -20.257969    -20.257996
   2.15415    -20.258003    -20.258030
   2.15415    -20.258003    -20.258030
   2.13882    -20.257966    -20.257992
   2.12349    -20.257853    -20.257880
   2.10816    -20.257666    -20.257693
   2.09282    -20.257406    -20.257433
   2.07749    -20.257072    -20.257099
   2.06216    -20.256667    -20.256694
   2.04683    -20.256193    -20.256219
   2.03149    -20.255650    -20.255677
   2.01616    -20.255042    -20.255069
   2.00083    -20.254371    -20.254398
   1.98550    -20.253641    -20.253667
   1.97016    -20.252852    -20.252878
   1.95483    -20.252010    -20.252036
   1.93950    -20.251118    -20.251143
   1.92417    -20.250178    -20.250204
   1.90883    -20.249196    -20.249221
   1.89350    -20.248175    -20.248200
   1.87817    -20.247120    -20.247145
   1.86284    -20.246035    -20.246060
   1.84750    -20.244926    -20.244950
   1.83217    -20.243797    -20.243821
   1.81684    -20.242653    -20.242677
   1.80151    -20.241500    -20.241523
   1.78617    -20.240343    -20.240366
   1.77084    -20.239188    -20.239211
   1.75551    -20.238041    -20.238065
   1.74018    -20.236910    -20.236933
   1.72484    -20.235801    -20.235823
   1.70951    -20.234722    -20.234744
   1.69418    -20.233683    -20.233705
   1.67885    -20.232695    -20.232717
   1.66351    -20.231772    -20.231794
   1.64818    -20.230932    -20.230954
   1.63285    -20.230199    -20.230221
   1.61752    -20.229601    -20.229622
   1.60219    -20.229165    -20.229187
   1.58685    -20.228909    -20.228931
   1.57152    -20.228826    -20.228849
   1.55619    -20.228884    -20.228906
   1.54086    -20.229036    -20.229059
   1.52552    -20.229243    -20.229266
   1.51019    -20.229471    -20.229495
   1.49486    -20.229698    -20.229722
   1.47953    -20.229909    -20.229932
   1.46419    -20.230092    -20.230116
   1.44886    -20.230240    -20.230264
   1.43353    -20.230349    -20.230373
   1.41820    -20.230416    -20.230440
   1.40286    -20.230438    -20.230462
   1.40286    -20.257945    -20.257971
   1.38661    -20.257945    -20.257971
   1.37036    -20.257946    -20.257972
   1.35410    -20.257947    -20.257973
   1.33785    -20.257949    -20.257975
   1.32160    -20.257951    -20.257977
   1.30534    -20.257954    -20.257980
   1.28909    -20.257957    -20.257984
   1.27284    -20.257961    -20.257988
   1.25659    -20.257965    -20.257991
   1.24033    -20.257968    -20.257995
   1.22408    -20.257972    -20.257999
   1.20783    -20.257976    -20.258003
   1.19157    -20.257980    -20.258007
   1.17532    -20.257984    -20.258010
   1.15907    -20.257988    -20.258014
   1.14281    -20.257991    -20.258018
   1.12656    -20.257995    -20.258022
   1.11031    -20.257998    -20.258024
   1.09405    -20.258000    -20.258027
   1.07780    -20.258001    -20.258028
   1.06155    -20.258002    -20.258029
   1.04529    -20.258003    -20.258030
   1.02904    -20.258003    -20.258030
   1.02904    -20.258003    -20.258030
   1.01306    -20.257962    -20.257989
   0.99708    -20.257840    -20.257867
   0.98110    -20.257637    -20.257664
   0.96512    -20.257353    -20.257380
   0.94914    -20.256990    -20.257017
   0.93316    -20.256548    -20.256575
   0.91718    -20.256029    -20.256056
   0.90119    -20.255435    -20.255462
   0.88521    -20.254767    -20.254793
   0.86923    -20.254027    -20.254054
   0.85325    -20.253219    -20.253245
   0.83727    -20.252344    -20.252370
   0.82129    -20.251405    -20.251431
   0.80531    -20.250406    -20.250432
   0.78933    -20.249348    -20.249375
   0.77335    -20.248237    -20.248263
   0.75737    -20.247075    -20.247101
   0.74138    -20.245866    -20.245892
   0.72540    -20.244615    -20.244641
   0.70942    -20.243326    -20.243352
   0.69344    -20.242004    -20.242030
   0.67746    -20.240655    -20.240681
   0.66148    -20.239284    -20.239310
   0.64550    -20.237900    -20.237926
   0.62952    -20.236513    -20.236539
   0.61354    -20.235140    -20.235165
   0.59756    -20.233809    -20.233835
   0.58157    -20.232583    -20.232609
   0.56559    -20.231609    -20.231635
   0.54961    -20.231203    -20.231229
   0.54961    -20.237521    -20.237542
   0.53391    -20.237588    -20.237609
   0.51821    -20.237785    -20.237806
   0.50250    -20.238106    -20.238128
   0.48680    -20.238541    -20.238563
   0.47110    -20.239078    -20.239100
   0.45539    -20.239703    -20.239725
   0.43969    -20.240402    -20.240425
   0.42399    -20.241163    -20.241186
   0.40828    -20.241973    -20.241996
   0.39258    -20.242821    -20.242844
   0.37688    -20.243696    -20.243720
   0.36117    -20.244590    -20.244614
   0.34547    -20.245495    -20.245518
   0.32977    -20.246402    -20.246426
   0.31406    -20.247306    -20.247330
   0.29836    -20.248199    -20.248224
   0.28266    -20.249078    -20.249102
   0.26695    -20.249936    -20.249961
   0.25125    -20.250768    -20.250793
   0.23555    -20.251571    -20.251597
